Data from 214_FLMS001491_010.txt Node
Date: Thu Apr 19 16:36:57 BST 2018
User: hsy
Spectrometer: FLMS00149
Trigger mode: 0
Integration Time (sec): 1.000000E-2
Scans to average: 10
Electric dark correction enabled: true
Nonlinearity correction enabled: false
Boxcar width: 0
XAxis mode: Wavelengths
Number of Pixels in Spectrum: 2048
>>>>>Begin Spectral Data<<<<<
341.393	-27.19
341.776	-27.19
342.16	-27.19
342.543	-66.96
342.927	-71.48
343.31	-92.95
343.693	-73.97
344.077	-42.78
344.46	-73.97
344.843	-44.59
345.226	-42.56
345.61	-29.67
345.993	-39.62
346.376	-0.75
346.759	18.23
347.142	27.5
347.525	48.74
347.908	57.33
348.291	80.38
348.674	90.77
349.057	117.89
349.44	148.4
349.823	137.55
350.206	163.09
350.588	235.63
350.971	258.91
351.354	266.36
351.737	279.24
352.119	285.8
352.502	317.89
352.884	302.29
353.267	324.44
353.65	353.59
354.032	340.26
354.414	342.52
354.797	347.26
355.179	347.49
355.562	358.56
355.944	381.61
356.326	383.87
356.709	382.29
357.091	393.14
357.473	397.66
357.855	402.86
358.238	406.92
358.62	385.91
359.002	395.4
359.384	399.24
359.766	364.44
360.148	401.5
360.53	374.83
360.912	385.46
361.294	385
361.676	365.8
362.057	387.72
362.439	394.95
362.821	385
363.203	384.55
363.584	377.32
363.966	353.59
364.348	399.47
364.729	378
365.111	359.47
365.493	394.72
365.874	369.41
366.256	360.37
366.637	380.71
367.019	373.25
367.4	356.76
367.781	369.64
368.163	386.13
368.544	387.49
368.925	378.68
369.306	388.39
369.688	386.59
370.069	388.62
370.45	387.26
370.831	376.42
371.212	373.93
371.593	384.55
371.974	386.36
372.355	387.94
372.736	390.43
373.117	400.6
373.498	396.3
373.879	387.94
374.26	372.8
374.641	369.64
375.021	375.51
375.402	384.78
375.783	400.82
376.163	410.54
376.544	411.9
376.925	417.09
377.305	416.19
377.686	435.17
378.066	424.78
378.447	409.86
378.827	425
379.208	414.61
379.588	441.27
379.968	423.87
380.349	422.07
380.729	422.97
381.109	422.52
381.489	461.61
381.87	431.78
382.25	438.11
382.63	431.33
383.01	441.95
383.39	455.28
383.77	442.18
384.15	460.48
384.53	468.84
384.91	478.56
385.29	453.7
385.67	456.19
386.049	467.94
386.429	464.55
386.809	488.05
387.189	493.7
387.568	466.58
387.948	489.18
388.328	493.7
388.707	490.09
389.087	484.21
389.466	499.8
389.846	502.29
390.225	508.62
390.605	500.03
390.984	513.81
391.363	519.92
391.743	528.28
392.122	532.8
392.501	523.76
392.881	514.72
393.26	530.76
393.639	530.08
394.018	542.74
394.397	547.94
394.776	546.36
395.155	556.07
395.534	553.14
395.913	552.01
396.292	576.41
396.671	574.83
397.05	562.17
397.429	594.72
397.808	573.25
398.186	592.46
398.565	560.82
398.944	585.9
399.323	602.63
399.701	591.1
400.08	603.08
400.458	592.46
400.837	606.69
401.215	614.6
401.594	604.89
401.972	618.22
402.351	631.33
402.729	629.97
403.107	635.84
403.486	640.59
403.864	661.38
404.242	668.16
404.62	660.25
404.999	682.85
405.377	671.32
405.755	667.71
406.133	686.69
406.511	712.23
406.889	695.05
407.267	702.74
407.645	728.72
408.023	727.59
408.401	740.7
408.779	728.72
409.156	769.85
409.534	745.45
409.912	759.46
410.29	760.81
410.667	764.2
411.045	770.3
411.422	821.6
411.8	796.07
412.178	810.98
412.555	819.12
412.933	834.94
413.31	840.36
413.687	847.36
414.065	870.19
414.442	871.54
414.819	872
415.197	881.94
415.574	890.53
415.951	905.44
416.328	902.96
416.705	924.2
417.082	928.72
417.46	966.01
417.837	943.86
418.214	953.12
418.591	967.59
418.967	946.12
419.344	996.51
419.721	1007.59
420.098	994.93
420.475	993.35
420.852	1043.74
421.228	1022.73
421.605	1028.6
421.982	1041.48
422.358	1073.35
422.735	1058.88
423.111	1056.4
423.488	1081.93
423.864	1081.48
424.241	1076.96
424.617	1107.47
424.994	1131.88
425.37	1164.42
425.746	1139.11
426.123	1159.45
426.499	1166.45
426.875	1179.33
427.251	1206.23
427.627	1214.81
428.003	1247.13
428.379	1212.1
428.756	1255.94
429.132	1271.76
429.507	1271.53
429.883	1286.68
430.259	1298.43
430.635	1322.83
431.011	1341.36
431.387	1350.4
431.763	1366.22
432.138	1404.19
432.514	1425.65
432.89	1424.3
433.265	1453.68
433.641	1446.9
434.016	1484.64
434.392	1501.81
434.767	1528.7
435.143	1518.08
435.518	1528.7
435.894	1563.73
436.269	1568.7
436.644	1578.19
437.02	1601.24
437.395	1611.86
437.77	1645.76
438.145	1700.22
438.52	1663.16
438.895	1684.63
439.271	1710.17
439.646	1727.79
440.021	1763.95
440.395	1760.34
440.77	1738.87
441.145	1765.53
441.52	1769.15
441.895	1784.74
442.27	1770.96
442.645	1802.59
443.019	1793.33
443.394	1807.79
443.769	1836.94
444.143	1841.01
444.518	1849.82
444.892	1853.67
445.267	1865.64
445.641	1877.62
446.016	1909.71
446.39	1917.17
446.764	1929.14
447.139	1894.57
447.513	1969.14
447.887	1959.2
448.262	1957.17
448.636	1968.24
449.01	1997.39
449.384	1972.08
449.758	2022.7
450.132	2032.64
450.506	2070.38
450.88	2055.02
451.254	2051.4
451.628	2095.92
452.002	2102.47
452.376	2108.57
452.75	2148.12
453.123	2174.34
453.497	2200.78
453.871	2211.17
454.244	2261.11
454.618	2267.89
454.992	2296.82
455.365	2297.5
455.739	2381.79
456.112	2361.68
456.486	2411.84
456.859	2409.36
457.232	2458.4
457.606	2449.58
457.979	2495.46
458.352	2545.85
458.725	2590.82
459.099	2588.56
459.472	2606.64
459.845	2639.18
460.218	2633.98
460.591	2691.61
460.964	2703.36
461.337	2740.65
461.71	2751.5
462.083	2805.51
462.456	2829.69
462.829	2803.7
463.201	2861.55
463.574	2848.89
463.947	2908.78
464.32	2964.6
464.692	3000.08
465.065	3002.34
465.438	3018.16
465.81	3122.79
466.183	3088.89
466.555	3144.93
466.928	3176.57
467.3	3156.91
467.672	3176.57
468.045	3271.26
468.417	3262.89
468.789	3255.89
469.161	3314.19
469.534	3341.76
469.906	3440.97
470.278	3444.81
470.65	3464.7
471.022	3522.77
471.394	3549.67
471.766	3610.46
472.138	3602.77
472.51	3691.58
472.882	3760.51
473.253	3819.04
473.625	3812.48
473.997	3905.59
474.369	3904.69
474.74	3906.04
475.112	3988.53
475.484	4103.55
475.855	4111.01
476.227	4146.94
476.598	4216.99
476.97	4291.57
477.341	4347.39
477.713	4422.64
478.084	4465.57
478.455	4529.53
478.827	4610.43
479.198	4692.69
479.569	4735.17
479.94	4797.32
480.311	4860.37
480.682	4914.6
481.053	5081.83
481.424	5124.99
481.795	5184.2
482.166	5249.06
482.537	5348.72
482.908	5360.69
483.279	5447.24
483.65	5511.2
484.021	5628.48
484.391	5721.13
484.762	5734.02
485.133	5809.27
485.503	5860.79
485.874	5975.82
486.244	6138.98
486.615	6157.06
486.985	6300.55
487.356	6378.74
487.726	6364.51
488.097	6559.53
488.467	6564.28
488.837	6704.84
489.207	6746.64
489.578	6859.64
489.948	6960.88
490.318	7027.99
490.688	7033.42
491.058	7195.45
491.428	7231.6
491.798	7291.26
492.168	7467.53
492.538	7538.26
492.908	7543.23
493.278	7611.03
493.648	7681.08
494.017	7802.66
494.387	7839.95
494.757	7947.52
495.126	8046.05
495.496	8032.49
495.866	8063.9
496.235	8180.96
496.605	8185.7
496.974	8245.14
497.344	8376.21
497.713	8335.76
498.082	8430.22
498.452	8463.66
498.821	8587.05
499.19	8582.75
499.559	8631.79
499.928	8742.98
500.298	8759.02
500.667	8804.44
501.036	8860.49
501.405	8872.24
501.774	8882.41
502.143	9042.4
502.512	9024.1
502.88	9043.08
503.249	9000.6
503.618	9101.16
503.987	9169.63
504.356	9254.6
504.724	9276.97
505.093	9294.15
505.462	9324.43
505.83	9369.63
506.199	9486.01
506.567	9525.78
506.936	9561.26
507.304	9653.23
507.672	9651.65
508.041	9742.05
508.409	9797.64
508.777	9808.49
509.145	9923.28
509.514	9853
509.882	9882.38
510.25	10004.41
510.618	9998.31
510.986	10031.53
511.354	10203.28
511.722	10166.22
512.09	10348.58
512.458	10321.47
512.826	10354.46
513.193	10463.61
513.561	10525.53
513.929	10550.61
514.297	10665.64
514.664	10692.3
515.032	10791.06
515.4	10846.2
515.767	10871.73
516.135	10880.55
516.502	10929.13
516.869	11095.23
517.237	11135.91
517.604	11122.57
517.972	11299.29
518.339	11382.91
518.706	11400.08
519.073	11492.96
519.44	11486.63
519.808	11735.44
520.175	11679.4
520.542	11882.33
520.909	11862.44
521.276	11925.72
521.643	11972.72
522.009	12117.58
522.376	12132.49
522.743	12322.77
523.11	12432.14
523.477	12536.77
523.843	12591.24
524.21	12814.96
524.577	12950.78
524.943	12952.13
525.31	13035.52
525.676	13243.87
526.043	13343.08
526.409	13410.42
526.776	13494.26
527.142	13608.84
527.508	13641.83
527.874	13793.01
528.241	13961.37
528.607	14040.92
528.973	14172.21
529.339	14203.85
529.705	14366.11
530.071	14496.5
530.437	14528.59
530.803	14665.53
531.169	14731.75
531.535	14816.49
531.901	15002.02
532.267	15035.92
532.632	15171.51
532.998	15232.3
533.364	15261.45
533.73	15235.91
534.095	15462.12
534.461	15561.33
534.826	15646.98
535.192	15700.31
535.557	15701.21
535.923	15859.85
536.288	15996.34
536.653	15977.36
537.019	16105.72
537.384	16151.6
537.749	16180.97
538.114	16312.04
538.479	16341.42
538.845	16479.27
539.21	16418.71
539.575	16428.88
539.94	16539.83
540.305	16727.17
540.67	16572.37
541.034	16708.87
541.399	16832.03
541.764	16843.55
542.129	16929.88
542.494	16986.83
542.858	17149.53
543.223	17143.43
543.587	17114.28
543.952	17258.23
544.316	17265.92
544.681	17253.71
545.045	17497.77
545.41	17403.54
545.774	17464.1
546.138	17585.68
546.503	17593.59
546.867	17584.55
547.231	17729.63
547.595	17836.52
547.959	17912.68
548.324	17869.52
548.688	18005.11
549.052	17950.64
549.416	18054.6
549.779	18030.64
550.143	18050.98
550.507	18244.2
550.871	18306.34
551.235	18251.43
551.599	18576.16
551.962	18477.86
552.326	18619.1
552.689	18614.81
553.053	18617.74
553.417	18738.19
553.78	18946.1
554.143	18878.3
554.507	19159.43
554.87	19088.47
555.234	19322.13
555.597	19243.49
555.96	19301.12
556.323	19537.72
556.686	19496.37
557.05	19630.15
557.413	19689.58
557.776	19785.4
558.139	19856.13
558.502	19983.81
558.865	20050.02
559.228	20187.65
559.59	20282.56
559.953	20365.27
560.316	20646.84
560.679	20640.52
561.041	20770.23
561.404	21026.5
561.767	21121.63
562.129	21128.19
562.492	21373.38
562.854	21399.59
563.217	21525.24
563.579	21759.81
563.941	21890.65
564.304	22085.68
564.666	22237.76
565.028	22360.92
565.39	22527.7
565.753	22758.88
566.115	22782.16
566.477	23028.48
566.839	23115.48
567.201	23430.05
567.563	23503.04
567.925	23724.73
568.287	23810.38
568.648	23923.82
569.01	24211.72
569.372	24473.41
569.734	24535.1
570.095	24759.96
570.457	25081.98
570.819	25184.35
571.18	25237.91
571.542	25438.36
571.903	25674.96
572.265	25780.95
572.626	26068.62
572.987	26158.56
573.349	26377.99
573.71	26689.85
574.071	26744.99
574.432	27037.86
574.794	27286.9
575.155	27344.07
575.516	27334.35
575.877	27589.26
576.238	27703.38
576.599	27909.25
576.96	28029.25
577.32	28310.15
577.681	28427.43
578.042	28680.76
578.403	28755.11
578.763	28682.34
579.124	28980.64
579.485	29183.57
579.845	29403.22
580.206	29466.05
580.566	29452.94
580.927	29684.57
581.287	29989.2
581.648	29941.51
582.008	30172.92
582.368	30447.94
582.728	30640.93
583.089	30797.99
583.449	30944.2
583.809	31141.26
584.169	31404.3
584.529	31482.04
584.889	31931.52
585.249	32082.48
585.609	32079.31
585.969	32563.82
586.329	32759.97
586.688	33171.94
587.048	33311.37
587.408	33525.38
587.768	33960.17
588.127	34164.91
588.487	34563.54
588.846	35184.77
589.206	35078.56
589.565	35488.26
589.925	36168.7
590.284	36440.55
590.643	36732.75
591.003	37242.79
591.362	37794.19
591.721	38101.07
592.08	38464.23
592.44	38891.56
592.799	39367.26
593.158	39824.19
593.517	40073.23
593.876	40735.13
594.235	41032.07
594.593	41497.82
594.952	42186.39
595.311	42368.76
595.67	42792.02
596.029	43668.16
596.387	44112.22
596.746	44657.96
597.104	44872.2
597.463	45256.14
597.822	45947.65
598.18	46224.48
598.538	46600.51
598.897	47433.03
599.255	47398.91
599.613	48335.61
599.972	48346
600.33	48847.91
600.688	49106.21
601.046	49615.8
601.404	50158.84
601.762	50401.54
602.12	50831.81
602.478	51117.23
602.836	51521.74
603.194	51464.56
603.552	51911.11
603.91	52189.97
604.268	52604.42
604.625	52735.94
604.983	53120.34
605.341	53276.27
605.698	53697.27
606.056	54133.2
606.413	54099.98
606.771	54577.7
607.128	54702.45
607.485	54894.76
607.843	55051.14
608.2	55326.38
608.557	55664.91
608.914	55729.31
609.272	56052.92
609.629	56263.76
609.986	56511.66
610.343	56582.62
610.7	56974.48
611.057	57043.4
611.414	57157.07
611.771	57368.14
612.127	57561.35
612.484	57715.02
612.841	57924.06
613.198	57897.84
613.554	58010.61
613.911	58349.58
614.267	58391.84
614.624	58556.58
614.98	58688.33
615.337	58889.45
615.693	58981.2
616.05	59073.86
616.406	59261.65
616.762	59302.1
617.118	59368.54
617.475	59485.82
617.831	59664.8
618.187	59740.73
618.543	59782.54
618.899	60029.31
619.255	60069.76
619.611	60096.88
619.967	60265.01
620.323	60373.71
620.678	60277.21
621.034	60378.68
621.39	60443.99
621.746	60509.75
622.101	60812.79
622.457	60605.34
622.812	60819.8
623.168	60892.79
623.523	60858.22
623.879	61044.65
624.234	60974.82
624.589	61055.95
624.945	61157.19
625.3	61196.51
625.655	61235.16
626.01	61273.57
626.365	61329.62
626.72	61215.72
627.075	61319.9
627.43	61327.36
627.785	61393.8
628.14	61420.46
628.495	61511.08
628.85	61517.18
629.205	61440.8
629.559	61572.32
629.914	61405.09
630.269	61506.11
630.623	61392.67
630.978	61374.59
631.332	61507.69
631.687	61572.77
632.041	61473.79
632.396	61485.54
632.75	61446.45
633.104	61543.4
633.459	61415.94
633.813	61412.33
634.167	61404.64
634.521	61388.15
634.875	61458.43
635.229	61406.68
635.583	61292.33
635.937	61279.45
636.291	61301.14
636.645	61279.22
636.999	61176.17
637.352	61283.52
637.706	61166.68
638.06	61262.27
638.413	61148.83
638.767	61110.86
639.121	61179.11
639.474	61058.44
639.828	61048.04
640.181	61052.34
640.534	61113.58
640.888	61007.14
641.241	60903.19
641.594	60932.34
641.947	61093.46
642.301	60933.69
642.654	60990.87
643.007	60923.3
643.36	60979.57
643.713	61019.79
644.066	61005.1
644.419	60824.09
644.771	60628.17
645.124	60329.64
645.477	60380.26
645.83	60297.33
646.182	60150.66
646.535	60152.25
646.888	60190.44
647.24	60116.77
647.593	60216.2
647.945	60103.43
648.298	60029.09
648.65	59916.32
649.002	59829.32
649.355	59843.33
649.707	59742.09
650.059	59793.84
650.411	60084
650.763	60132.81
651.115	60502.52
651.467	60402.41
651.819	60386.14
652.171	60388.85
652.523	60249.42
652.875	60428.85
653.227	60189.08
653.578	60394.27
653.93	60314.73
654.282	60200.61
654.633	60142.75
654.985	60190.44
655.337	60190.21
655.688	60135.07
656.039	60325.12
656.391	60040.16
656.742	60120.16
657.094	60161.51
657.445	60164.45
657.796	60106.6
658.147	60103.43
658.498	60163.55
658.849	60193.15
659.2	60036.99
659.551	59958.8
659.902	60170.78
660.253	60023.44
660.604	60112.02
660.955	60011.91
661.306	60104.34
661.656	60002.19
662.007	60036.99
662.358	60022.08
662.708	59994.28
663.059	60051.23
663.409	59945.47
663.76	59954.06
664.11	60057.56
664.461	59992.48
664.811	60030.89
665.161	60037.22
665.511	59971.23
665.862	59986.83
666.212	60047.62
666.562	60043.32
666.912	59986.6
667.262	59893.5
667.612	59928.52
667.962	59974.85
668.312	59940.05
668.662	60103.89
669.011	59956.32
669.361	59956.32
669.711	59979.14
670.06	59909.31
670.41	59901.86
670.76	59946.6
671.109	59985.47
671.459	59876.32
671.808	59902.08
672.157	59914.74
672.507	59856.89
672.856	59852.82
673.205	59838.36
673.554	59884.23
673.904	59821.18
674.253	60032.93
674.602	59840.39
674.951	59578.93
675.3	59433.39
675.649	59804.91
675.998	59834.29
676.346	59850.11
676.695	59899.82
677.044	59720.39
677.393	59731.69
677.741	59738.47
678.09	59736.89
678.438	59639.94
678.787	59649.66
679.135	59665.03
679.484	59519.95
679.832	59676.78
680.181	59597.46
680.529	59587.06
680.877	59513.39
681.225	59530.34
681.573	59668.42
681.922	59520.4
682.27	59365.6
682.618	59365.6
682.966	59319.73
683.314	59439.04
683.661	59318.6
684.009	59271.14
684.357	59150.92
684.705	59130.13
685.053	59145.94
685.4	59032.95
685.748	59050.81
686.095	59011.26
686.443	58752.96
686.79	58803.35
687.138	58895.33
687.485	58819.63
687.832	58752.96
688.18	58764.71
688.527	58622.34
688.874	58609.69
689.221	58557.03
689.568	58470.93
689.915	58390.03
690.262	58434.1
690.609	58357.72
690.956	58258.51
691.303	58250.6
691.65	58118.4
691.997	58102.13
692.344	57915.24
692.69	57892.64
693.037	57964.96
693.383	57708.47
693.73	57858.3
694.077	57627.57
694.423	57556.61
694.769	57557.96
695.116	57534.01
695.462	57368.59
695.808	57273
696.155	57349.16
696.501	57169.05
696.847	57215.83
697.193	57036.17
697.539	57042.05
697.885	56809.28
698.231	56759.34
698.577	56804.76
698.923	56762.28
699.269	56514.38
699.614	56491.1
699.96	56431.89
700.306	56437.54
700.651	56343.98
700.997	56213.37
701.342	56161.16
701.688	56112.13
702.033	55950.1
702.379	55984.22
702.724	55885.01
703.069	55935.63
703.415	55608.18
703.76	55677.11
704.105	55645.7
704.45	55621.74
704.795	55491.13
705.14	55247.29
705.485	55405.25
705.83	55130.01
706.175	55327.29
706.52	55110.8
706.865	55083.23
707.209	55001.87
707.554	54940.41
707.899	54944.02
708.243	54839.84
708.588	54810.01
708.932	54698.83
709.277	54614.54
709.621	54483.69
709.966	54334.09
710.31	54347.65
710.654	54213.19
710.998	54218.62
711.342	54293.19
711.687	54109.02
712.031	54120.54
712.375	53905.18
712.719	53866.31
713.063	53770.27
713.407	54026.08
713.75	53791.51
714.094	53667.44
714.438	53665.18
714.782	53626.54
715.125	53340.9
715.469	53589.03
715.812	53287.79
716.156	53229.04
716.499	53267.91
716.843	53382.25
717.186	53121.7
717.53	53272.2
717.873	53122.37
718.216	53124.18
718.559	53001.7
718.902	52738.2
719.246	52816.39
719.589	52670.63
719.932	52650.52
720.275	52603.74
720.617	52670.63
720.96	52523.52
721.303	52533.01
721.646	52582.28
721.989	52369.85
722.331	52444.65
722.674	52344.09
723.016	52199.01
723.359	52196.75
723.701	52198.56
724.044	52095.51
724.386	51930.32
724.729	52052.12
725.071	51971.22
725.413	51906.81
725.755	51915.17
726.097	51845.12
726.439	51755.4
726.782	51592.7
727.124	51812.58
727.465	51621.62
727.807	51506.15
728.149	51626.59
728.491	51405.13
728.833	51509.76
729.175	51461.85
729.516	51204.01
729.858	51275.64
730.199	51340.5
730.541	51312.48
730.882	51238.58
731.224	51181.41
731.565	51029.1
731.906	51064.12
732.248	51172.82
732.589	50912.49
732.93	50807.63
733.271	50868.65
733.612	50844.24
733.953	50877.24
734.294	50835.43
734.635	50724.02
734.976	50756.56
735.317	50496.91
735.658	50581.88
735.999	50458.26
736.339	50559.5
736.68	50540.3
737.021	50325.39
737.361	50370.58
737.702	50514.99
738.042	50427.98
738.383	50429.34
738.723	50410.81
739.063	50189.34
739.404	50329.45
739.744	50082.68
740.084	50208.78
740.424	50153.86
740.764	49997.26
741.104	50194.32
741.444	49929.01
741.784	49823.48
742.124	49949.35
742.464	49779.86
742.804	49792.97
743.143	49836.13
743.483	49829.58
743.823	49619.64
744.162	49643.82
744.502	49546.2
744.841	49650.15
745.181	49693.09
745.52	49490.61
745.86	49510.04
746.199	49503.49
746.538	49456.71
746.877	49560.66
747.216	49298.97
747.556	49316.15
747.895	49233.66
748.234	49177.39
748.573	49123.16
748.911	48972.88
749.25	48985.08
749.589	48825.76
749.928	48982.14
750.267	49077.73
750.605	48842.26
750.944	48737.63
751.283	48678.2
751.621	48727.91
751.96	48494.47
752.298	48503.29
752.636	48401.37
752.975	48268.04
753.313	48275.72
753.651	48348.26
753.989	48117.08
754.327	48122.51
754.666	47878.22
755.004	47955.73
755.342	47986.24
755.679	47879.8
756.017	47675.06
756.355	47800.25
756.693	47588.96
757.031	47762.74
757.368	47438.46
757.706	47386.71
758.044	47298.8
758.381	47364.56
758.719	47126.37
759.056	47248.4
759.394	47037.79
759.731	46731.81
760.068	46683.22
760.405	46675.76
760.743	46436
761.08	46450.91
761.417	46276.23
761.754	46181.77
762.091	46173.18
762.428	45892.96
762.765	45716.47
763.102	45891.83
763.438	45668.79
763.775	45394.22
764.112	45511.28
764.449	45420.2
764.785	45222.92
765.122	45057.5
765.458	44982.02
765.795	44771.86
766.131	44881.46
766.467	44711.3
766.804	44443.05
767.14	44285.32
767.476	44209.61
767.812	44038.55
768.148	44120.58
768.485	43765.56
768.821	43656.18
769.157	43561.04
769.492	43517.66
769.828	43273.37
770.164	43064.33
770.5	42837
770.836	42886.03
771.171	42622.09
771.507	42697.11
771.842	42404.24
772.178	42170.12
772.513	42171.02
772.849	41999.5
773.184	41927.41
773.519	41789.79
773.855	41603.36
774.19	41422.34
774.525	41323.59
774.86	41286.53
775.195	41090.83
775.53	40945.07
775.865	40801.79
776.2	40545.3
776.535	40201.81
776.87	40177.18
777.205	40050.4
777.539	39992.55
777.874	39932.44
778.209	39701.03
778.543	39645.67
778.878	39576.06
779.212	39402.28
779.547	39189.41
779.881	39038.9
780.215	38739.93
780.55	38966.14
780.884	38562.31
781.218	38477.79
781.552	38601.63
781.886	38354.4
782.22	38099.27
782.554	37734.3
782.888	37726.17
783.222	37612.27
783.556	37264.94
783.889	37282.34
784.223	36957.15
784.557	36899.75
784.89	36984.72
785.224	36901.33
785.557	36577.5
785.891	36477.84
786.224	36495.01
786.558	36431.51
786.891	36149.71
787.224	35954.46
787.557	35766.45
787.891	35803.28
788.224	35370.52
788.557	35546.11
788.89	35517.41
789.223	35322.84
789.556	35251.66
789.888	35194.48
790.221	34935.96
790.554	34618.45
790.887	34793.36
791.219	34583.88
791.552	34435.41
791.884	34362.87
792.217	34215.75
792.549	34124.46
792.882	33727.86
793.214	33780.06
793.546	33781.64
793.879	33605.83
794.211	33282.67
794.543	33582.32
794.875	33413.51
795.207	33317.25
795.539	33182.79
795.871	33150.92
796.203	32880.65
796.535	32767.2
796.867	32710.26
797.198	32419.64
797.53	32523.37
797.862	32252.64
798.193	32243.38
798.525	32048.8
798.856	32217.39
799.188	31777.85
799.519	31724.97
799.85	31664.18
800.182	31612.21
800.513	31670.96
800.844	31206.11
801.175	31432.78
801.506	31467.8
801.837	31134.48
802.168	31000.47
802.499	31076.4
802.83	30699.24
803.161	30751.21
803.491	30592.12
803.822	30755.05
804.153	30448.39
804.483	30387.38
804.814	30215.41
805.145	30303.09
805.475	30203.43
805.805	30085.92
806.136	30052.92
806.466	30023.55
806.796	29917.11
807.126	29778.58
807.457	29634.18
807.787	29602.54
808.117	29545.14
808.447	29443.22
808.777	29475.54
809.107	29150.12
809.436	29149.22
809.766	29074.87
810.096	29072.16
810.426	28901.99
810.755	28966.63
811.085	28833.75
811.414	28888.66
811.744	28756.69
812.073	28627.88
812.403	28437.83
812.732	28443.48
813.061	28464.04
813.39	28328
813.719	28254.1
814.049	28327.09
814.378	28168.23
814.707	28083.94
815.036	28043.94
815.365	27869.25
815.693	27807.79
816.022	27757.84
816.351	27639.88
816.68	27540.22
817.008	27673.1
817.337	27547.91
817.665	27412.99
817.994	27387.46
818.322	27548.81
818.651	27267.69
818.979	27157.41
819.307	27281.25
819.636	27116.28
819.964	27126.9
820.292	27174.58
820.62	26925.78
820.948	27103.85
821.276	27139.1
821.604	27005.55
821.932	27059.33
822.259	27067.92
822.587	26945.89
822.915	26957.41
823.243	27006.22
823.57	26871.31
823.898	27091.19
824.225	26957.64
824.553	26973.01
824.88	26853.69
825.207	27041.93
825.535	26873.35
825.862	26909.28
826.189	26977.75
826.516	27069.5
826.843	27037.41
827.17	27103.17
827.497	26933.46
827.824	26954.93
828.151	26989.05
828.478	26917.87
828.805	27188.14
829.131	27091.87
829.458	27049.39
829.785	26871.54
830.111	26862.27
830.438	27029.95
830.764	26983.17
831.09	26978.66
831.417	26810.3
831.743	27133.23
832.069	26981.14
832.395	26808.04
832.722	26916.96
833.048	26768.49
833.374	26907.7
833.7	26632
834.026	26807.13
834.351	26803.07
834.677	26759
835.003	26832.44
835.329	26742.05
835.654	26763.29
835.98	26567.37
836.306	26703.63
836.631	26570.98
836.956	26702.28
837.282	26750.86
837.607	26536.63
837.932	26547.93
838.258	26516.97
838.583	26443.08
838.908	26330.99
839.233	26363.76
839.558	26246.47
839.883	26301.84
840.208	26001.28
840.533	26243.53
840.858	26248.96
841.182	26101.16
841.507	26042.86
841.832	25998.34
842.156	26018.23
842.481	25926.93
842.805	25770.78
843.13	25767.16
843.454	25705.02
843.778	25643.77
844.103	25650.55
844.427	25530.78
844.751	25538.69
845.075	25427.74
845.399	25415.98
845.723	25368.3
846.047	25289.21
846.371	25189.32
846.695	25063.68
847.019	24911.59
847.343	24786.62
847.666	24687.87
847.99	24570.13
848.313	24452.62
848.637	24442.68
848.96	24395.9
849.284	24425.73
849.607	24195.68
849.931	24187.54
850.254	23825.52
850.577	23786.87
850.9	23642.25
851.223	23612.42
851.546	23479.31
851.869	23407.45
852.192	23512.08
852.515	23425.3
852.838	23236.83
853.161	23198.19
853.483	23107.8
853.806	22964.75
854.129	22926.56
854.451	22902.38
854.774	22804.08
855.096	22689.73
855.419	22707.13
855.741	22694.25
856.063	22519.34
856.385	22425.33
856.708	22358.89
857.03	22294.48
857.352	22263.3
857.674	22182.62
857.996	22161.38
858.318	22022.63
858.64	22094.49
858.961	21910.99
859.283	21849.3
859.605	21862.63
859.926	21787.61
860.248	21619.47
860.57	21572.47
860.891	21560.04
861.212	21469.2
861.534	21373.6
861.855	21379.48
862.176	21212.03
862.498	21359.37
862.819	21358.92
863.14	21304.68
863.461	21154.85
863.782	21089.54
864.103	21097.45
864.424	20947.4
864.745	21132.03
865.065	20913.5
865.386	20770.23
865.707	20872.15
866.027	20852.71
866.348	20778.37
866.668	20818.82
866.989	20684.58
867.309	20719.16
867.63	20582.89
867.95	20612.49
868.27	20541.99
868.59	20598.26
868.91	20422.22
869.23	20394.42
869.55	20381.09
869.87	20482.33
870.19	20233.97
870.51	20334.08
870.83	20237.59
871.15	20232.39
871.469	20193.3
871.789	20118.72
872.109	20188.78
872.428	20106.52
872.748	20175.22
873.067	20070.59
873.386	20015.67
873.706	19979.97
874.025	19894.55
874.344	19840.31
874.663	19823.59
874.982	19800.76
875.301	19906.75
875.62	19749.01
875.939	19595.35
876.258	19660.66
876.577	19634.89
876.896	19526.65
877.214	19515.35
877.533	19535.69
877.852	19441
878.17	19463.6
878.489	19566.65
878.807	19375.69
879.125	19374.11
879.444	19247.33
879.762	19292.53
880.08	19343.38
880.398	19126.21
880.716	19305.18
881.034	19214.57
881.352	19184.96
881.67	19057.51
881.988	19106.09
882.306	19081.46
882.624	18942.26
882.941	18884.63
883.259	18881.92
883.577	18854.35
883.894	18819.32
884.212	18735.48
884.529	18716.5
884.846	18719.66
885.164	18659.1
885.481	18589.05
885.798	18570.97
886.115	18540.01
886.432	18587.24
886.75	18389.5
887.067	18461.82
887.383	18387.24
887.7	18333.46
888.017	18259.79
888.334	18236.29
888.651	18116.52
888.967	18126.91
889.284	18089.4
889.6	17953.81
889.917	17917.65
890.233	17965.33
890.55	17803.08
890.866	17738.9
891.182	17749.07
891.498	17745
891.815	17679.24
892.131	17599.47
892.447	17626.13
892.763	17458
893.079	17473.59
893.395	17395.63
893.71	17286.48
894.026	17281.28
894.342	17284.22
894.657	17082.42
894.973	17106.37
895.289	17124.45
895.604	17011.91
895.92	17050.33
896.235	16953.61
896.55	16923.33
896.865	16845.59
897.181	16779.38
897.496	16720.17
897.811	16643.79
898.126	16533.51
898.441	16525.37
898.756	16518.82
899.071	16459.61
899.386	16407.63
899.7	16316.11
900.015	16111.37
900.33	16089.45
900.644	16127.64
900.959	16080.64
901.273	15943.69
901.588	16030.02
901.902	15876.12
902.216	15808.55
902.531	15857.14
902.845	15779.4
903.159	15556.58
903.473	15694.88
903.787	15549.35
904.101	15461.44
904.415	15477.26
904.729	15478.62
905.042	15348.68
905.356	15300.77
905.67	15216.03
905.984	15225.97
906.297	15180.77
906.611	15066.88
906.924	15101.23
907.237	14976.71
907.551	14925.19
907.864	14884.51
908.177	14817.39
908.491	14709.15
908.804	14613.56
909.117	14663.5
909.43	14584.63
909.743	14510.73
910.056	14431.87
910.368	14393.68
910.681	14351.19
910.994	14224.41
911.307	14201.36
911.619	14151.2
911.932	14143.51
912.244	13989.39
912.557	13998.66
912.869	13804.54
913.181	13878.66
913.494	13862.62
913.806	13692.68
914.118	13630.08
914.43	13614.26
914.742	13659.01
915.054	13501.72
915.366	13490.2
915.678	13439.35
915.99	13326.81
916.302	13236.87
916.613	13144.67
916.925	13191.22
917.236	13166.36
917.548	13049.08
917.859	13070.32
918.171	12919.59
918.482	12941.28
918.794	12868.29
919.105	12780.61
919.416	12738.35
919.727	12667.62
920.038	12647.73
920.349	12465.59
920.66	12493.39
920.971	12480.96
921.282	12458.58
921.593	12297.69
921.903	12253.17
922.214	12272.83
922.525	12172.72
922.835	12170.46
923.146	12082.55
923.456	12076.45
923.767	11946.73
924.077	11914.19
924.387	11890.46
924.697	11815.44
925.008	11859.5
925.318	11766.63
925.628	11779.96
925.938	11675.33
926.248	11513.3
926.558	11572.51
926.867	11440.53
927.177	11444.37
927.487	11344.49
927.796	11206.87
928.106	11282.57
928.416	11241.67
928.725	11157.15
929.034	11155.34
929.344	11112.18
929.653	11050.49
929.962	10963.71
930.271	10967.78
930.581	10812.75
930.89	10793.54
931.199	10769.59
931.508	10702.7
931.817	10706.99
932.125	10698.41
932.434	10642.14
932.743	10460.9
933.051	10483.95
933.36	10501.35
933.669	10391.29
933.977	10408.02
934.286	10397.62
934.594	10330.96
934.902	10253.22
935.21	10228.14
935.519	10124.41
935.827	10122.38
936.135	10035.15
936.443	9998.76
936.751	9921.93
937.059	9956.5
937.367	9798.99
937.674	9877.86
937.982	9842.16
938.29	9813.23
938.597	9787.92
938.905	9679.45
939.213	9562.16
939.52	9568.27
939.827	9608.49
940.135	9553.35
940.442	9448.27
940.749	9415.28
941.056	9422.28
941.363	9308.39
941.67	9263.64
941.977	9225.45
942.284	9159.46
942.591	9195.85
942.898	9169.41
943.205	9111.1
943.511	8982.97
943.818	9062.29
944.125	8955.63
944.431	8968.96
944.738	8876.08
945.044	8859.13
945.35	8804.22
945.657	8769.87
945.963	8800.83
946.269	8747.27
946.575	8663.66
946.881	8661.62
947.187	8617.78
947.493	8537.33
947.799	8504.56
948.105	8522.42
948.41	8412.14
948.716	8488.07
949.022	8376.43
949.327	8299.37
949.633	8240.62
949.938	8283.55
950.244	8172.82
950.549	8173.73
950.854	8130.34
951.16	8096.44
951.465	8031.81
951.77	8049.66
952.075	7973.28
952.38	7996.56
952.685	7958.14
952.99	7926.95
953.294	7907.07
953.599	7844.69
953.904	7794.3
954.209	7743.23
954.513	7726.51
954.818	7691.48
955.122	7678.37
955.426	7645.6
955.731	7619.62
956.035	7514.08
956.339	7475.67
956.643	7467.53
956.948	7434.31
957.252	7477.25
957.556	7397.25
957.86	7329.91
958.163	7346.18
958.467	7234.77
958.771	7263.24
959.075	7242.22
959.378	7218.04
959.682	7146.18
959.985	7119.74
960.289	7069.57
960.592	7051.72
960.896	6999.75
961.199	6965.85
961.502	6926.98
961.805	6933.76
962.108	6875.68
962.411	6887.88
962.714	6831.61
963.017	6834.55
963.32	6734.44
963.623	6751.62
963.926	6721.33
964.228	6685.63
964.531	6690.83
964.833	6647.44
965.136	6563.15
965.438	6551.85
965.741	6520.44
966.043	6510.04
966.345	6460.32
966.648	6445.41
966.95	6471.85
967.252	6408.8
967.554	6378.29
967.856	6299.2
968.158	6303.49
968.46	6269.6
968.761	6251.74
969.063	6236.38
969.365	6150.73
969.666	6150.28
969.968	6090.39
970.269	6065.31
970.571	6081.8
970.872	6038.19
971.174	5953.9
971.475	6014.46
971.776	5953.22
972.077	5898.76
972.378	5903.5
972.679	5915.48
972.98	5877.97
973.281	5865.99
973.582	5806.1
973.883	5799.55
974.183	5754.13
974.484	5709.16
974.785	5682.04
975.085	5660.57
975.386	5679.33
975.686	5643.85
975.986	5584.87
976.287	5579.22
976.587	5493.12
976.887	5498.99
977.187	5580.12
977.487	5481.14
977.787	5425.1
978.087	5398.21
978.387	5373.8
978.687	5349.39
978.987	5356.4
979.286	5312.11
979.586	5287.02
979.885	5286.12
980.185	5262.62
980.484	5188.27
980.784	5193.69
981.083	5163.41
981.382	5145.1
981.682	5151.88
981.981	5135.61
982.28	5073.92
982.579	4992.57
982.878	5035.05
983.177	4993.47
983.475	4975.62
983.774	4951.66
984.073	4924.77
984.372	4880.48
984.67	4849.75
984.969	4890.87
985.267	4894.04
985.566	4811.78
985.864	4767.94
986.162	4785.79
986.461	4749.86
986.759	4710.54
987.057	4648.17
987.355	4677.09
987.653	4665.8
987.951	4668.96
988.249	4603.42
988.547	4576.31
988.844	4578.11
989.142	4556.87
989.44	4523.88
989.737	4567.94
990.035	4466.93
990.332	4447.04
990.63	4446.37
990.927	4416.31
991.224	4387.84
991.521	4355.07
991.819	4336.09
992.116	4360.94
992.413	4340.15
992.71	4259.03
993.006	4223.55
993.303	4228.07
993.6	4265.35
993.897	4196.88
994.193	4224.9
994.49	4166.6
994.787	4182.42
995.083	4116.88
995.379	4115.98
995.676	4075.75
995.972	4050.44
996.268	4046.6
996.565	4033.27
996.861	3980.84
997.157	3977.68
997.453	3930.67
997.749	3951.92
998.044	3898.58
998.34	3913.72
998.636	3879.83
998.932	3841.18
999.227	3844.57
999.523	3863.33
999.818	3758.02
1000.114	3767.51
1000.409	3773.39
1000.704	3686.16
1001	3697.23
1001.295	3696.56
1001.59	3693.84
1001.885	3612.49
1002.18	3629.66
1002.475	3604.35
1002.77	3602.32
1003.065	3576.33
1003.359	3547.86
1003.654	3516.9
1003.949	3510.35
1004.243	3479.61
1004.538	3461.08
1004.832	3446.84
1005.127	3437.35
1005.421	3419.05
1005.715	3373.85
1006.009	3389.44
1006.304	3357.58
1006.598	3300.41
1006.892	3288.88
1007.186	3283.46
1007.48	3261.99
1007.773	3266.74
1008.067	3205.27
1008.361	3162.56
1008.655	3207.53
1008.948	3160.52
1009.242	3168.89
1009.535	3122.11
1009.829	3155.55
1010.122	3071.94
1010.415	3041.66
1010.708	3020.41
1011.001	3008.89
1011.295	2989.46
1011.588	2964.15
1011.881	2972.05
1012.173	2919.85
1012.466	2943.13
1012.759	2939.97
1013.052	2966.86
1013.344	2891.38
1013.637	2857.26
1013.93	2881.21
1014.222	2831.49
1014.514	2801.66
1014.807	2799.4
1015.099	2779.07
1015.391	2743.81
1015.683	2727.99
1015.976	2710.82
1016.268	2679.63
1016.56	2706.07
1016.851	2661.1
1017.143	2620.43
1017.435	2608.45
1017.727	2606.19
1018.018	2589.47
1018.31	2605.28
1018.602	2554.89
1018.893	2561.9
1019.185	2489.81
1019.476	2490.26
1019.767	2522.12
1020.058	2471.28
1020.35	2444.38
1020.641	2426.76
1020.932	2445.51
1021.223	2393.99
1021.514	2366.87
1021.804	2354.67
1022.095	2365.97
1022.386	2351.96
1022.677	2317.16
1022.967	2279.87
1023.258	2276.48
1023.548	2293.65
1023.839	2224.96
1024.129	2234.67
1024.419	2194.9
1024.709	2201.45
1025	2163.26
1025.29	2197.84
1025.58	2143.83
1025.87	2139.53
1026.16	2135.92
1026.449	2114.22
1026.739	2098.63
1027.029	2060.89
1027.319	2073.55
1027.608	2062.93
1027.898	2019.09
1028.187	2012.98
1028.477	1994.91
1028.766	1998.07
1029.055	1976.37
1029.344	1972.08
1029.634	1949.26
1029.923	1901.8
1030.212	1907.45
1030.501	1887.11
1030.79	1891.63
1031.078	1870.16
1031.367	1846.21
1031.656	1854.12
1031.945	1834.68
1032.233	1819.32
1032.522	1806.89
1032.81	1783.16
1033.099	1792.65
1033.387	1764.4
1033.675	1774.8
1033.963	1755.82
1034.251	1725.31
1034.54	1730.05
1034.828	1719.43
1035.116	1680.56
1035.403	1671.75
1035.691	1688.25
1035.979	1658.64
1036.267	1664.97
1036.554	1637.4
1036.842	1629.04
1037.129	1616.84
1037.417	1593.33
1037.704	1582.49
1037.992	1609.38
1038.279	1581.13
1038.566	1566.22
1038.853	1566.22
1039.14	1566.22
