Data from 214_FLMS001491_005.txt Node
Date: Thu Apr 19 16:36:46 BST 2018
User: hsy
Spectrometer: FLMS00149
Trigger mode: 0
Integration Time (sec): 1.000000E-2
Scans to average: 10
Electric dark correction enabled: true
Nonlinearity correction enabled: false
Boxcar width: 0
XAxis mode: Wavelengths
Number of Pixels in Spectrum: 2048
>>>>>Begin Spectral Data<<<<<
341.393	1.24
341.776	1.24
342.16	1.24
342.543	-65.87
342.927	-83.73
343.31	-54.8
343.693	-64.29
344.077	-73.33
344.46	-72.43
344.843	-58.19
345.226	-56.38
345.61	-43.05
345.993	-8.25
346.376	-0.56
346.759	29.94
347.142	34.69
347.525	47.57
347.908	65.2
348.291	59.09
348.674	79.21
349.057	115.59
349.44	110.17
349.823	142.93
350.206	170.28
350.588	236.26
350.971	233.1
351.354	271.07
351.737	290.95
352.119	291.86
352.502	300.67
352.884	299.31
353.267	314.91
353.65	328.01
354.032	343.61
354.414	334.34
354.797	342.02
355.179	348.35
355.562	350.39
355.944	390.84
356.326	373.89
356.709	396.94
357.091	374.34
357.473	393.1
357.855	394.68
358.238	381.12
358.62	390.61
359.002	392.87
359.384	393.1
359.766	376.6
360.148	394.23
360.53	397.84
360.912	396.71
361.294	377.73
361.676	403.72
362.057	385.41
362.439	392.87
362.821	401.46
363.203	362.59
363.584	385.87
363.966	367.79
364.348	377.96
364.729	368.24
365.111	384.74
365.493	374.11
365.874	379.09
366.256	382.93
366.637	387.45
367.019	361.91
367.4	363.04
367.781	376.37
368.163	383.83
368.544	375.24
368.925	386.32
369.306	386.32
369.688	372.76
370.069	378.41
370.45	398.29
370.831	402.14
371.212	380.22
371.593	397.16
371.974	368.69
372.355	367.33
372.736	390.61
373.117	420.44
373.498	384.06
373.879	366.88
374.26	389.26
374.641	387.45
375.021	379.54
375.402	388.8
375.783	401.01
376.163	413.89
376.544	406.66
376.925	420.89
377.305	410.95
377.686	400.78
378.066	412.53
378.447	402.14
378.827	400.78
379.208	433.1
379.588	423.6
379.968	433.32
380.349	422.25
380.729	427.9
381.109	411.63
381.489	427.9
381.87	436.26
382.25	443.27
382.63	441.68
383.01	432.87
383.39	443.04
383.77	461.12
384.15	466.99
384.53	455.69
384.91	443.72
385.29	461.57
385.67	472.19
386.049	465.64
386.429	473.55
386.809	470.84
387.189	478.74
387.568	476.71
387.948	475.35
388.328	474.68
388.707	488.24
389.087	490.27
389.466	505.86
389.846	472.19
390.225	509.7
390.605	528.46
390.984	503.38
391.363	513.32
391.743	517.39
392.122	496.82
392.501	491.17
392.881	518.97
393.26	521.46
393.639	519.87
394.018	542.7
394.397	521.46
394.776	521
395.155	543.38
395.534	563.71
395.913	546.09
396.292	547.44
396.671	543.83
397.05	554
397.429	575.92
397.808	575.01
398.186	572.98
398.565	593.54
398.944	562.81
399.323	575.47
399.701	581.34
400.08	572.53
400.458	582.02
400.837	599.42
401.215	592.87
401.594	577.5
401.972	609.14
402.351	605.97
402.729	613.43
403.107	622.24
403.486	636.71
403.864	644.39
404.242	640.32
404.62	644.62
404.999	644.62
405.377	671.96
405.755	675.8
406.133	669.93
406.511	659.53
406.889	679.87
407.267	709.7
407.645	718.51
408.023	721
408.401	692.3
408.779	718.06
409.156	757.61
409.534	752.64
409.912	753.54
410.29	760.09
410.667	757.61
411.045	766.87
411.422	792.41
411.8	778.4
412.178	803.48
412.555	807.32
412.933	824.72
413.31	830.15
413.687	856.14
414.065	849.81
414.442	837.15
414.819	864.05
415.197	877.83
415.574	877.83
415.951	898.85
416.328	882.35
416.705	897.94
417.082	923.03
417.46	928
417.837	949.92
418.214	946.3
418.591	944.04
418.967	930.26
419.344	957.15
419.721	993.76
420.098	951.05
420.475	975.91
420.852	996.7
421.228	997.83
421.605	1003.02
421.982	1022.01
422.358	1007.77
422.735	1042.57
423.111	1055.68
423.488	1093.42
423.864	1072.63
424.241	1078.05
424.617	1073.08
424.994	1080.54
425.37	1083.25
425.746	1109.69
426.123	1111.5
426.499	1105.39
426.875	1150.14
427.251	1149.69
427.627	1176.13
428.003	1199.63
428.379	1233.07
428.756	1227.43
429.132	1236.46
429.507	1226.07
429.883	1257.93
430.259	1273.3
430.635	1297.25
431.011	1296.12
431.387	1299.74
431.763	1366.63
432.138	1331.83
432.514	1386.07
432.89	1379.51
433.265	1412.73
433.641	1433.52
434.016	1416.12
434.392	1446.18
434.767	1487.08
435.143	1466.52
435.518	1489.57
435.894	1514.88
436.269	1526.17
436.644	1552.84
437.02	1560.52
437.395	1588.55
437.77	1608.88
438.145	1639.17
438.52	1619.73
438.895	1644.14
439.271	1640.97
439.646	1678.03
440.021	1661.76
440.395	1706.28
440.77	1674.19
441.145	1703.8
441.52	1760.52
441.895	1738.82
442.27	1764.13
442.645	1758.71
443.019	1758.03
443.394	1770.69
443.769	1770.91
444.143	1765.72
444.518	1803
444.892	1813.4
445.267	1810.69
445.641	1829.22
446.016	1855.43
446.39	1859.05
446.764	1852.27
447.139	1854.53
447.513	1903.34
447.887	1859.5
448.262	1893.4
448.636	1915.32
449.01	1941.08
449.384	1957.58
449.758	1984.69
450.132	1994.18
450.506	2001.64
450.88	2020.85
451.254	1990.8
451.628	2050.91
452.002	2086.39
452.376	2071.02
452.75	2093.84
453.123	2113.96
453.497	2119.15
453.871	2146.05
454.244	2171.36
454.618	2234.63
454.992	2231.92
455.365	2250.9
455.739	2316.89
456.112	2294.29
456.486	2341.75
456.859	2334.74
457.232	2384.01
457.606	2416.32
457.979	2393.5
458.352	2443.21
458.725	2453.16
459.099	2476.88
459.472	2535.41
459.845	2572.7
460.218	2572.25
460.591	2615.41
460.964	2634.17
461.337	2658.57
461.71	2676.88
462.083	2730.21
462.456	2707.84
462.829	2712.13
463.201	2791.45
463.574	2804.56
463.947	2825.35
464.32	2848.4
464.692	2892.24
465.065	2908.74
465.438	2971.56
465.81	2971.33
466.183	2986.25
466.555	3046.36
466.928	3070.54
467.3	3077.77
467.672	3082.97
468.045	3206.13
468.417	3174.27
468.789	3180.14
469.161	3227.15
469.534	3270.54
469.906	3321.16
470.278	3368.39
470.65	3383.53
471.022	3424.66
471.394	3487.25
471.766	3483.41
472.138	3538.33
472.51	3624.42
472.882	3642.05
473.253	3639.57
473.625	3720.02
473.997	3791.2
474.369	3805.44
474.74	3761.6
475.112	3888.6
475.484	3923.85
475.855	3983.29
476.227	4062.83
476.598	4094.69
476.97	4164.07
477.341	4290.4
477.713	4274.8
478.084	4296.95
478.455	4416.49
478.827	4506.66
479.198	4551.41
479.569	4569.94
479.94	4652.19
480.311	4697.16
480.682	4826.43
481.053	4949.14
481.424	4987.55
481.795	5019.87
482.166	5082.47
482.537	5137.61
482.908	5222.57
483.279	5334.89
483.65	5437.26
484.021	5517.93
484.391	5560.87
484.762	5615.33
485.133	5705.27
485.503	5741.66
485.874	5892.61
486.244	5939.84
486.615	6085.38
486.985	6112.95
487.356	6175.77
487.726	6249.21
488.097	6426.16
488.467	6409.21
488.837	6565.14
489.207	6626.38
489.578	6694.85
489.948	6757.9
490.318	6889.42
490.688	6883.1
491.058	6985.92
491.428	7117.44
491.798	7095.52
492.168	7248.51
492.538	7326.47
492.908	7410.99
493.278	7464.55
493.648	7516.3
494.017	7587.48
494.387	7591.33
494.757	7739.8
495.126	7770.98
495.496	7876.97
495.866	7921.94
496.235	7980.47
496.605	8044.87
496.974	8071.77
497.344	8124.65
497.713	8220.91
498.082	8247.81
498.452	8348.37
498.821	8386.11
499.19	8402.38
499.559	8503.17
499.928	8507.01
500.298	8574.35
500.667	8576.84
501.036	8605.99
501.405	8646.67
501.774	8682.82
502.143	8791.52
502.512	8839.43
502.88	8857.96
503.249	8863.61
503.618	8928.69
503.987	8966.2
504.356	9015.7
504.724	9130.04
505.093	9072.64
505.462	9208.01
505.83	9191.96
506.199	9257.04
506.567	9409.58
506.936	9343.82
507.304	9424.05
507.672	9490.71
508.041	9538.17
508.409	9576.13
508.777	9602.12
509.145	9749.46
509.514	9716.92
509.882	9753.75
510.25	9820.65
510.618	9901.1
510.986	9942.22
511.354	9980.19
511.722	10033.52
512.09	10163.24
512.458	10137.02
512.826	10183.12
513.193	10264.48
513.561	10271.26
513.929	10304.02
514.297	10527.29
514.664	10507.86
515.032	10585.6
515.4	10638.7
515.767	10704.24
516.135	10681.87
516.502	10664.47
516.869	10876.44
517.237	10928.87
517.604	10926.15
517.972	11040.05
518.339	11138.58
518.706	11194.17
519.073	11247.73
519.44	11231.91
519.808	11399.14
520.175	11512.13
520.542	11612.46
520.909	11619.69
521.276	11750.76
521.643	11845.23
522.009	11941.72
522.376	11987.37
522.743	12059.68
523.11	12311.2
523.477	12367.92
523.843	12474.59
524.21	12639.33
524.577	12693.56
524.943	12846.33
525.31	12873.67
525.676	13021.69
526.043	13068.7
526.409	13255.36
526.776	13349.37
527.142	13452.64
527.508	13606.76
527.874	13695.8
528.241	13804.5
528.607	13830.26
528.973	14010.14
529.339	13963.59
529.705	14161.1
530.071	14277.93
530.437	14414.88
530.803	14521.54
531.169	14512.05
531.535	14608.99
531.901	14778.03
532.267	14898.7
532.632	14968.53
532.998	15031.81
533.364	15064.35
533.73	15197.45
534.095	15324.46
534.461	15402.42
534.826	15507.5
535.192	15512.7
535.557	15732.35
535.923	15677.67
536.288	15759.92
536.653	15901.39
537.019	15917.66
537.384	16011.44
537.749	16141.16
538.114	16125.56
538.479	16116.53
538.845	16283.3
539.21	16312
539.575	16367.37
539.94	16432.45
540.305	16539.57
540.67	16531.88
541.034	16658.88
541.399	16728.49
541.764	16815.72
542.129	16787.24
542.494	16854.36
542.858	16983.17
543.223	17027.69
543.587	17071.3
543.952	17072.43
544.316	17201.47
544.681	17223.16
545.045	17332.99
545.41	17317.4
545.774	17376.61
546.138	17369.15
546.503	17603.04
546.867	17585.41
547.231	17697.5
547.595	17721.68
547.959	17728.46
548.324	17783.83
548.688	17927.78
549.052	18043.03
549.416	18014.1
549.779	17961.22
550.143	18127.09
550.507	18235.79
550.871	18236.24
551.235	18316.47
551.599	18466.52
551.962	18516.01
552.326	18619.96
552.689	18692.5
553.053	18572.51
553.417	18719.85
553.78	18957.13
554.143	18970.01
554.507	19050.91
554.87	19077.13
555.234	19273.96
555.597	19111.25
555.96	19331.81
556.323	19497.91
556.686	19594.17
557.05	19717.56
557.413	19681.63
557.776	19796.2
558.139	19964.33
558.502	20022.41
558.865	20055.86
559.228	20277.55
559.59	20395.28
559.953	20467.82
560.316	20768.15
560.679	20785.1
561.041	20828.04
561.404	21112.78
561.767	21278.42
562.129	21250.4
562.492	21484.52
562.854	21575.82
563.217	21768.81
563.579	21898.97
563.941	22110.49
564.304	22257.38
564.666	22535.34
565.028	22542.12
565.39	22727.88
565.753	22972.16
566.115	23083.35
566.477	23285.38
566.839	23577.12
567.201	23796.1
567.563	23912.7
567.925	24166.94
568.287	24318.8
568.648	24455.74
569.01	24661.61
569.372	25060.47
569.734	24948.84
570.095	25295.49
570.457	25545.43
570.819	25724.18
571.18	25820.45
571.542	26092.99
571.903	26173.44
572.265	26496.14
572.626	26773.19
572.987	26770.03
573.349	26983.36
573.71	27256.12
574.071	27418.38
574.432	27653.85
574.794	28038.47
575.155	28142.65
575.516	28189.65
575.877	28522.75
576.238	28617.89
576.599	28732.69
576.96	28917.09
577.32	29214.71
577.681	29244.99
578.042	29506.91
578.403	29577.64
578.763	29614.93
579.124	29811.08
579.485	30155.48
579.845	30292.2
580.206	30221.69
580.566	30404.74
580.927	30594.56
581.287	30965.63
581.648	30952.75
582.008	31234.77
582.368	31270.48
582.728	31488.1
583.089	31700.75
583.449	31870.69
583.809	31913.17
584.169	32153.62
584.529	32183.45
584.889	32720.83
585.249	32773.71
585.609	32881.73
585.969	33292.8
586.329	33312.23
586.688	33822.27
587.048	33903.85
587.408	34180.68
587.768	34391.3
588.127	34777.28
588.487	35029.93
588.846	35767.31
589.206	35674.66
589.565	36137.24
589.925	36628.98
590.284	36818.81
590.643	37275.29
591.003	37698.1
591.362	38263.06
591.721	38538.53
592.08	38865.53
592.44	39429.13
592.799	39624.38
593.158	40031.6
593.517	40450.12
593.876	40970.11
594.235	41241.29
594.593	41683.54
594.952	42331.66
595.311	42437.19
595.67	43123.5
596.029	43624.5
596.387	44094.77
596.746	44708.32
597.104	44825.83
597.463	45139.27
597.822	45970.2
598.18	46100.82
598.538	46588.72
598.897	47248.81
599.255	47193.67
599.613	48135.8
599.972	48177.83
600.33	48609.46
600.688	48961.31
601.046	49430.23
601.404	49899.37
601.762	50102.52
602.12	50561.27
602.478	50878.78
602.836	51095.04
603.194	51242.61
603.552	51647.12
603.91	51885.98
604.268	52235.35
604.625	52538.62
604.983	52979.51
605.341	52887.76
605.698	53442.78
606.056	53755.08
606.413	53831.92
606.771	54198.91
607.128	54318.23
607.485	54460.15
607.843	54685.45
608.2	54992.79
608.557	55320.47
608.914	55419.67
609.272	55663.28
609.629	55970.62
609.986	56127.22
610.343	56228.69
610.7	56567.21
611.057	56600.88
611.414	56734.44
611.771	56942.8
612.127	57144.15
612.484	57248.1
612.841	57468.21
613.198	57490.35
613.554	57546.4
613.911	57821.42
614.267	57969.66
614.624	58050.56
614.98	58232.71
615.337	58478.58
615.693	58479.25
616.05	58643.77
616.406	58792.92
616.762	58844.89
617.118	58997.66
617.475	58983.65
617.831	59179.8
618.187	59213.02
618.543	59369.85
618.899	59576.85
619.255	59551.99
619.611	59576.85
619.967	59759.9
620.323	59906.11
620.678	59840.57
621.034	59853.91
621.39	59933
621.746	60012.77
622.101	60375.7
622.457	60126.67
622.812	60290.05
623.168	60382.71
623.523	60355.81
623.879	60475.13
624.234	60410.95
624.589	60584.28
624.945	60631.29
625.3	60679.65
625.655	60688.23
626.01	60777.95
626.365	60822.24
626.72	60742.24
627.075	60777.27
627.43	60800.77
627.785	60819.76
628.14	60803.26
628.495	60862.47
628.85	60917.38
629.205	60871.96
629.559	60968
629.914	60878.74
630.269	60970.94
630.623	60922.13
630.978	60884.16
631.332	61049.36
631.687	60980.88
632.041	60948.34
632.396	60960.09
632.75	60970.04
633.104	60994.89
633.459	60888.91
633.813	60878.29
634.167	60920.77
634.521	60924.39
634.875	60914.9
635.229	60904.05
635.583	60811.85
635.937	60812.3
636.291	60830.83
636.645	60835.12
636.999	60726.65
637.352	60754.9
637.706	60641
638.06	60810.27
638.413	60711.06
638.767	60634.9
639.121	60732.75
639.474	60588.8
639.828	60572.08
640.181	60579.09
640.534	60614.56
640.888	60488.92
641.241	60355.81
641.594	60436.94
641.947	60468.58
642.301	60384.29
642.654	60463.61
643.007	60342.93
643.36	60467.68
643.713	60323.5
644.066	60443.27
644.419	60293.89
644.771	60051.64
645.124	59806.9
645.477	59782.72
645.83	59684.42
646.182	59730.97
646.535	59640.35
646.888	59715.83
647.24	59617.3
647.593	59729.16
647.945	59614.82
648.298	59514.93
648.65	59457.08
649.002	59326.91
649.355	59327.37
649.707	59229.29
650.059	59196.75
650.411	59571.88
650.763	59721.48
651.115	60025.88
651.467	59961.47
651.819	59924.41
652.171	59905.2
652.523	59794.92
652.875	59842.16
653.227	59749.05
653.578	59945.88
653.93	59797.41
654.282	59647.81
654.633	59738.88
654.985	59738.43
655.337	59676.06
655.688	59669.28
656.039	59751.08
656.391	59506.8
656.742	59570.98
657.094	59610.75
657.445	59643.29
657.796	59607.13
658.147	59536.17
658.498	59617.08
658.849	59593.8
659.2	59556.97
659.551	59489.17
659.902	59656.85
660.253	59538.66
660.604	59567.81
660.955	59501.15
661.306	59599
661.656	59507.7
662.007	59497.31
662.358	59551.99
662.708	59573.46
663.059	59586.12
663.409	59339.57
663.76	59570.07
664.11	59503.41
664.461	59558.55
664.811	59523.75
665.161	59507.25
665.511	59428.15
665.862	59495.05
666.212	59525.33
666.562	59558.1
666.912	59440.36
667.262	59442.62
667.612	59433.8
667.962	59504.76
668.312	59390.19
668.662	59562.61
669.011	59509.28
669.361	59437.19
669.711	59469.51
670.06	59415.05
670.41	59345.67
670.76	59328.04
671.109	59415.05
671.459	59361.94
671.808	59359.91
672.157	59413.01
672.507	59235.39
672.856	59300.93
673.205	59325.33
673.554	59285.56
673.904	59241.04
674.253	59438.78
674.602	59269.06
674.951	58909.75
675.3	58905.23
675.649	59259.8
675.998	59264.54
676.346	59239.23
676.695	59242.85
677.044	59102.74
677.393	59234.71
677.741	59243.53
678.09	59147.26
678.438	59041.27
678.787	59171.44
679.135	59147.48
679.484	58977.77
679.832	59063.19
680.181	58960.37
680.529	59016.19
680.877	58879.92
681.225	58946.81
681.573	59025.23
681.922	58874.95
682.27	58808.28
682.618	58800.83
682.966	58756.76
683.314	58738.23
683.661	58714.95
684.009	58599.25
684.357	58548.86
684.705	58484.45
685.053	58570.32
685.4	58426.83
685.748	58425.47
686.095	58357.45
686.443	58324.23
686.79	58253.72
687.138	58331.01
687.485	58302.08
687.832	58155.42
688.18	58164.46
688.527	58054.41
688.874	58016.67
689.221	58014.86
689.568	57866.61
689.915	57780.06
690.262	57817.12
690.609	57813.06
690.956	57646.51
691.303	57651.48
691.65	57526.06
691.997	57479.73
692.344	57393.41
692.69	57285.39
693.037	57354.09
693.383	57117.93
693.73	57156.12
694.077	57040.42
694.423	57004.26
694.769	56910.48
695.116	56943.7
695.462	56813.31
695.808	56636.59
696.155	56772.41
696.501	56528.8
696.847	56639.98
697.193	56378.07
697.539	56436.37
697.885	56259.2
698.231	56235.7
698.577	56188.24
698.923	56182.36
699.269	55947.12
699.614	55853.11
699.96	55797.97
700.306	55902.6
700.651	55721.59
700.997	55660.34
701.342	55520.91
701.688	55524.08
702.033	55427.58
702.379	55386.45
702.724	55275.04
703.069	55362.05
703.415	55046.35
703.76	54967.71
704.105	55023.07
704.45	54897.43
704.795	54761.38
705.14	54726.13
705.485	54767.26
705.83	54509.41
706.175	54702.86
706.52	54525.68
706.865	54348.74
707.209	54371.34
707.554	54283.66
707.899	54256.54
708.243	54139.71
708.588	54041.86
708.932	53915.31
709.277	54036.21
709.621	53897.45
709.966	53701.53
710.31	53819.26
710.654	53585.6
710.998	53504.47
711.342	53644.35
711.687	53505.15
712.031	53435.77
712.375	53293.85
712.719	53268.77
713.063	53232.61
713.407	53337.24
713.75	53080.53
714.094	53044.37
714.438	52920.98
714.782	52910.13
715.125	52746.07
715.469	52894.99
715.812	52578.39
716.156	52546.53
716.499	52559.18
716.843	52573.65
717.186	52379.07
717.53	52546.08
717.873	52457.04
718.216	52355.8
718.559	52312.86
718.902	51995.58
719.246	52145.18
719.589	51948.13
719.932	51815.93
720.275	51942.25
720.617	52019.76
720.96	51762.82
721.303	51791.97
721.646	51793.78
721.989	51512.88
722.331	51647.57
722.674	51566.21
723.016	51507.23
723.359	51337.97
723.701	51499.55
724.044	51304.98
724.386	51126.68
724.729	51241.48
725.071	51268.82
725.413	51186.11
725.755	51042.16
726.097	51034.7
726.439	50915.84
726.782	50794.26
727.124	51063.18
727.465	50920.13
727.807	50745.45
728.149	50790.87
728.491	50642.17
728.833	50729.85
729.175	50592.68
729.516	50522.17
729.858	50532.34
730.199	50528.28
730.541	50360.6
730.882	50315.17
731.224	50325.34
731.565	50114.73
731.906	50206.93
732.248	50364.89
732.589	49996.09
732.93	49989.99
733.271	50031.34
733.612	49918.8
733.953	50068.85
734.294	49872.02
734.635	49831.12
734.976	49979.59
735.317	49698.24
735.658	49721.97
735.999	49623.21
736.339	49684
736.68	49657.79
737.021	49580.5
737.361	49431.13
737.702	49713.38
738.042	49436.33
738.383	49567.4
738.723	49563.1
739.063	49256.67
739.404	49488.3
739.744	49236.11
740.084	49211.25
740.424	49115.21
740.764	49070.91
741.104	49257.57
741.444	48936.45
741.784	48911.14
742.124	49051.93
742.464	48920.63
742.804	48874.08
743.143	48800.86
743.483	48822.11
743.823	48781.43
744.162	48736.46
744.502	48750.7
744.841	48723.13
745.181	48724.71
745.52	48461.21
745.86	48573.07
746.199	48538.27
746.538	48477.71
746.877	48486.52
747.216	48379.18
747.556	48312.74
747.895	48323.59
748.234	48167.21
748.573	48239.07
748.911	48075.46
749.25	48067.78
749.589	47896.71
749.928	47924.73
750.267	47991.17
750.605	47762.25
750.944	47704.62
751.283	47727.22
751.621	47856.71
751.96	47531.97
752.298	47577.62
752.636	47391.86
752.975	47468.02
753.313	47217.4
753.651	47469.37
753.989	47307.12
754.327	47204.52
754.666	46981.48
755.004	47068.71
755.342	47112.77
755.679	47037.97
756.017	46707.59
756.355	46874.36
756.693	46658.77
757.031	46779.67
757.368	46447.48
757.706	46458.78
758.044	46382.85
758.381	46478.44
758.719	46329.29
759.056	46195.96
759.394	46133.14
759.731	45787.84
760.068	45810.21
760.405	45724.79
760.743	45587.16
761.08	45684.11
761.417	45374.74
761.754	45382.65
762.091	45345.59
762.428	45043.22
762.765	44977.01
763.102	44995.99
763.438	44777.69
763.775	44547.87
764.112	44487.08
764.449	44548.77
764.785	44428.55
765.122	44083.7
765.458	44003.93
765.795	43960.77
766.131	43921.9
766.467	43875.34
766.804	43554.67
767.14	43281.23
767.476	43206.43
767.812	43207.34
768.148	43309.26
768.485	43065.65
768.821	42807.35
769.157	42545.21
769.492	42625.43
769.828	42403.29
770.164	42302.5
770.5	42039.01
770.836	41992
771.171	41783.2
771.507	41708.85
771.842	41530.55
772.178	41482.41
772.513	41425.24
772.849	41295.52
773.184	41220.72
773.519	41070.67
773.855	40757.69
774.19	40764.92
774.525	40600.85
774.86	40404.47
775.195	40441.31
775.53	40126.06
775.865	39859.18
776.2	39684.04
776.535	39553.65
776.87	39616.7
777.205	39155.69
777.539	39123.15
777.874	39351.17
778.209	38860.56
778.543	39024.62
778.878	38597.74
779.212	38531.98
779.547	38398.43
779.881	38206.34
780.215	38047.93
780.55	37923.18
780.884	37837.99
781.218	37667.82
781.552	37748.95
781.886	37405.91
782.22	37226.93
782.554	37111.91
782.888	36733.84
783.222	36658.36
783.556	36487.06
783.889	36401.64
784.223	36114.64
784.557	36306.95
784.89	36229.44
785.224	36036.45
785.557	35721.21
785.891	35766.86
786.224	35434.21
786.558	35455
786.891	35337.26
787.224	35193.76
787.557	34969.14
787.891	35097.72
788.224	34809.59
788.557	34835.81
788.89	34615.47
789.223	34557.85
789.556	34431.98
789.888	34279.66
790.221	34061.14
790.554	33928.71
790.887	33926.23
791.219	33810.75
791.552	33690.98
791.884	33545.67
792.217	33449.18
792.549	33361.95
792.882	33053.71
793.214	33074.27
793.546	33009.19
793.879	32774.39
794.211	32653.94
794.543	32759.03
794.875	32613.04
795.207	32425.02
795.539	32412.82
795.871	32361.75
796.203	32207.18
796.535	31941.87
796.867	32061.87
797.198	31892.61
797.53	31720.86
797.862	31596.34
798.193	31677.47
798.525	31395.45
798.856	31474.99
799.188	30958.4
799.519	30914.55
799.85	30856.25
800.182	30892.18
800.513	30918.85
800.844	30515.24
801.175	30720.66
801.506	30622.13
801.837	30427.56
802.168	30374.46
802.499	30354.34
802.83	30152.09
803.161	29988.48
803.491	30103.28
803.822	30052.66
804.153	29819.22
804.483	29619.22
804.814	29510.3
805.145	29598.43
805.475	29492.22
805.805	29450.19
806.136	29463.97
806.466	29263.98
806.796	29150.98
807.126	28940.37
807.457	28942.4
807.787	29026.92
808.117	28882.74
808.447	28819.02
808.777	28844.33
809.107	28624.9
809.436	28413.83
809.766	28501.28
810.096	28451.12
810.426	28349.2
810.755	28372.47
811.085	28143.1
811.414	28202.99
811.744	28039.15
812.073	28074.4
812.403	27817.46
812.732	27742.66
813.061	27829.89
813.39	27666.96
813.719	27535.21
814.049	27640.06
814.378	27557.13
814.707	27344.25
815.036	27441.88
815.365	27236.68
815.693	27107.65
816.022	27038.5
816.351	27057.25
816.68	26971.38
817.008	27022.23
817.337	26676.25
817.665	26720.31
817.994	26749.69
818.322	26983.58
818.651	26664.5
818.979	26601.22
819.307	26622.69
819.636	26548.12
819.964	26445.07
820.292	26459.53
820.62	26423.37
820.948	26497.04
821.276	26579.3
821.604	26511.51
821.932	26591.73
822.259	26308.35
822.587	26373.2
822.915	26254.11
823.243	26353.09
823.57	26311.29
823.898	26335.01
824.225	26279.2
824.553	26217.28
824.88	26405.07
825.207	26330.27
825.535	26388.57
825.862	26361.23
826.189	26263.15
826.516	26509.47
826.843	26407.33
827.17	26544.27
827.497	26385.86
827.824	26466.76
828.151	26432.86
828.478	26472.64
828.805	26547.21
829.131	26391.96
829.458	26367.1
829.785	26221.8
830.111	26292.3
830.438	26485.29
830.764	26287.33
831.09	26400.32
831.417	26169.14
831.743	26402.58
832.069	26219.54
832.395	26371.4
832.722	26402.13
833.048	26169.82
833.374	26401
833.7	26163.27
834.026	26232.19
834.351	26245.3
834.677	26295.24
835.003	26231.06
835.329	26146.09
835.654	26091.18
835.98	25965.08
836.306	26114
836.631	25916.04
836.956	26055.47
837.282	26006.43
837.607	26015.47
837.932	25769.83
838.258	25783.39
838.583	25820.23
838.908	25779.77
839.233	25745.88
839.558	25604.19
839.883	25632.43
840.208	25451.2
840.533	25550.4
840.858	25385.43
841.182	25475.6
841.507	25601.02
841.832	25301.59
842.156	25375.49
842.481	25370.52
842.805	25219.11
843.13	25120.13
843.454	25071.54
843.778	25065.44
844.103	25107.25
844.427	24936.41
844.751	25008.72
845.075	24906.58
845.399	24860.25
845.723	24737.99
846.047	24634.95
846.371	24547.72
846.695	24358.79
847.019	24300.94
847.343	24229.98
847.666	24144.56
847.99	23988.86
848.313	23926.26
848.637	23933.49
848.96	23788.64
849.284	23806.72
849.607	23547.52
849.931	23587.06
850.254	23315.21
850.577	23227.75
850.9	23126.28
851.223	23049.68
851.546	23117.25
851.869	22951.15
852.192	23096.91
852.515	22805.16
852.838	22630.03
853.161	22674.77
853.483	22512.74
853.806	22471.84
854.129	22457.38
854.451	22327.66
854.774	22228.23
855.096	22138.51
855.419	22057.84
855.741	22025.75
856.063	21934.9
856.385	21865.98
856.708	21860.78
857.03	21786.66
857.352	21724.51
857.674	21619.66
857.996	21584.86
858.318	21489.94
858.64	21553.67
858.961	21345.77
859.283	21246.79
859.605	21289.27
859.926	21232.32
860.248	21256.96
860.57	21100.58
860.891	21138.99
861.212	20971.76
861.534	20855.38
861.855	20767.93
862.176	20890.19
862.498	20828.49
862.819	20857.42
863.14	20780.36
863.461	20721.6
863.782	20644.54
864.103	20757.53
864.424	20549.63
864.745	20625.33
865.065	20420.59
865.386	20442.06
865.707	20432.12
866.027	20341.27
866.348	20432.57
866.668	20251.78
866.989	20327.71
867.309	20223.99
867.63	20136.31
867.95	20208.17
868.27	20204.78
868.59	20122.75
868.91	19993.26
869.23	20035.07
869.55	19916.65
869.87	20003.65
870.19	19969.31
870.51	19872.36
870.83	19812.93
871.15	19815.86
871.469	19816.32
871.789	19750.78
872.109	19728.63
872.428	19596.89
872.748	19635.08
873.067	19702.42
873.386	19655.64
873.706	19525.93
874.025	19495.65
874.344	19355.76
874.663	19551.01
874.982	19442.09
875.301	19442.99
875.62	19280.51
875.939	19264.01
876.258	19288.87
876.577	19260.62
876.896	19242.09
877.214	19207.97
877.533	19200.96
877.852	19146.73
878.17	19230.57
878.489	19177.91
878.807	18963.91
879.125	18984.47
879.444	18903.8
879.762	18958.71
880.08	19010.69
880.398	18816.34
880.716	18805.27
881.034	18802.56
881.352	18808.43
881.67	18732.95
881.988	18615.89
882.306	18634.2
882.624	18662.45
882.941	18499.51
883.259	18548.33
883.577	18532.51
883.894	18477.14
884.212	18416.8
884.529	18358.95
884.846	18258.16
885.164	18262.23
885.481	18110.82
885.798	18210.93
886.115	18050.03
886.432	18149.92
886.75	18077.15
887.067	18074.21
887.383	17981.34
887.7	17967.78
888.017	17824.05
888.334	17943.37
888.651	17786.31
888.967	17778.63
889.284	17601.68
889.6	17621.34
889.917	17578.18
890.233	17594.68
890.55	17501.35
890.866	17467.9
891.182	17507
891.498	17369.15
891.815	17308.81
892.131	17222.26
892.447	17203.28
892.763	17203.05
893.079	17127.12
893.395	16999.67
893.71	17078.99
894.026	16998.76
894.342	17013.45
894.657	16804.64
894.973	16786.79
895.289	16744.08
895.604	16622.27
895.92	16599.68
896.235	16642.84
896.55	16534.37
896.865	16498.89
897.181	16422.51
897.496	16436.52
897.811	16237.43
898.126	16234.71
898.441	16204.66
898.756	16236.52
899.071	16090.99
899.386	16087.83
899.7	15985.68
900.015	15881.05
900.33	15806.93
900.644	15719.7
900.959	15833.37
901.273	15671.79
901.588	15611.45
901.902	15552.25
902.216	15593.83
902.531	15438.13
902.845	15375.98
903.159	15397.67
903.473	15291.24
903.787	15221.41
904.101	15212.14
904.415	15150.22
904.729	15069.32
905.042	15012.37
905.356	15018.02
905.67	14971.02
905.984	14971.02
906.297	14965.82
906.611	14665.49
906.924	14665.72
907.237	14704.59
907.551	14576.23
907.864	14526.96
908.177	14499.62
908.491	14488.09
908.804	14384.37
909.117	14290.13
909.43	14236.35
909.743	14165.16
910.056	14219.4
910.368	13993.42
910.681	13981.21
910.994	14077.26
911.307	13875.91
911.619	13759.53
911.932	13806.76
912.244	13680.43
912.557	13702.13
912.869	13570.6
913.181	13470.27
913.494	13544.16
913.806	13422.81
914.118	13371.51
914.43	13258.75
914.742	13268.92
915.054	13138.52
915.366	13091.29
915.678	13085.19
915.99	13063.95
916.302	12989.6
916.613	12836.39
916.925	12919.77
917.236	12800.91
917.548	12742.83
917.859	12768.36
918.171	12702.15
918.482	12623.28
918.794	12607.92
919.105	12562.72
919.416	12411.99
919.727	12404.53
920.038	12361.82
920.349	12280.24
920.66	12199.57
920.971	12269.85
921.282	12226.46
921.593	12049.29
921.903	11972
922.214	11920.93
922.525	11880.7
922.835	11890.42
923.146	11832.12
923.456	11696.75
923.767	11652.69
924.077	11654.72
924.387	11678.45
924.697	11563.65
925.008	11538.57
925.318	11477.55
925.628	11544.67
925.938	11397.55
926.248	11275.97
926.558	11218.35
926.867	11211.34
927.177	11163.89
927.487	11094.74
927.796	10993.04
928.106	11040.73
928.416	10979.49
928.725	11025.36
929.034	10905.59
929.344	10925.93
929.653	10866.49
929.962	10727.29
930.271	10654.75
930.581	10689.55
930.89	10588.99
931.199	10547.41
931.508	10539.04
931.817	10512.83
932.125	10473.28
932.434	10411.14
932.743	10247.98
933.051	10284.14
933.36	10261.54
933.669	10217.7
933.977	10153.07
934.286	10207.08
934.594	10005.73
934.902	10010.92
935.21	9973.64
935.519	9934.09
935.827	9906.75
936.135	9873.53
936.443	9739.74
936.751	9697.26
937.059	9707.43
937.367	9627.2
937.674	9659.07
937.982	9619.52
938.29	9600.76
938.597	9468.11
938.905	9424.05
939.213	9466.08
939.52	9414.55
939.827	9369.13
940.135	9282.13
940.442	9310.6
940.749	9201.68
941.056	9251.62
941.363	9161.45
941.67	9092.08
941.977	9033.77
942.284	9010.27
942.591	8999.88
942.898	8949.71
943.205	8981.12
943.511	8873.33
943.818	8868.81
944.125	8786.32
944.431	8781.13
944.738	8712.88
945.044	8737.28
945.35	8610.28
945.657	8595.37
945.963	8577.97
946.269	8558.31
946.575	8547.91
946.881	8424.75
947.187	8464.07
947.493	8388.82
947.799	8379.33
948.105	8345.66
948.41	8277.64
948.716	8206.45
949.022	8259.56
949.327	8165.77
949.633	8046
949.938	8058.88
950.244	8067.7
950.549	8014.37
950.854	7987.25
951.16	7898.21
951.465	7870.19
951.77	7837.42
952.075	7808.72
952.38	7763.07
952.685	7769.17
952.99	7716.97
953.294	7721.94
953.599	7655.05
953.904	7651.21
954.209	7570.08
954.513	7558.56
954.818	7532.57
955.122	7494.61
955.426	7507.03
955.731	7401.27
956.035	7410.31
956.339	7391.56
956.643	7302.52
956.948	7303.88
957.252	7218
957.556	7248.51
957.86	7178.68
958.163	7174.16
958.467	7102.98
958.771	7065.24
959.075	7058.46
959.378	7025.46
959.682	7025.92
959.985	6981.17
960.289	6928.52
960.592	6890.1
960.896	6845.13
961.199	6839.03
961.502	6800.16
961.805	6798.13
962.108	6685.13
962.411	6690.78
962.714	6663.21
963.017	6740.05
963.32	6635.19
963.623	6591.8
963.926	6603.33
964.228	6560.17
964.531	6525.14
964.833	6488.53
965.136	6452.37
965.438	6394.52
965.741	6352.94
966.043	6293.05
966.345	6337.57
966.648	6245.82
966.95	6269.1
967.252	6263.23
967.554	6223.23
967.856	6213.73
968.158	6138.26
968.46	6153.62
968.761	6152.04
969.063	6067.3
969.365	6070.24
969.666	6044.93
969.968	6022.55
970.269	5978.71
970.571	5934.65
970.872	5936.23
971.174	5884.93
971.475	5879.73
971.776	5826.17
972.077	5806.97
972.378	5787.08
972.679	5774.2
972.98	5768.55
973.281	5676.8
973.582	5650.13
973.883	5650.81
974.183	5643.81
974.484	5558.16
974.785	5529.23
975.085	5597.25
975.386	5514.77
975.686	5453.53
975.986	5507.09
976.287	5522.23
976.587	5396.58
976.887	5419.86
977.187	5383.47
977.487	5377.15
977.787	5346.19
978.087	5271.16
978.387	5251.73
978.687	5301.44
978.987	5226.19
979.286	5213.08
979.586	5147.55
979.885	5173.76
980.185	5094.89
980.484	5123.82
980.784	5063.48
981.083	5036.59
981.382	5082.47
981.682	5081.56
981.981	4997.5
982.28	4972.41
982.579	4866.65
982.878	4951.17
983.177	4899.87
983.475	4900.32
983.774	4804.96
984.073	4814.9
984.372	4778.74
984.67	4763.15
984.969	4798.86
985.267	4738.07
985.566	4703.04
985.864	4733.32
986.162	4670.05
986.461	4679.31
986.759	4618.97
987.057	4559.77
987.355	4553.67
987.653	4566.32
987.951	4509.6
988.249	4556.38
988.547	4508.7
988.844	4450.39
989.142	4497.4
989.44	4452.2
989.737	4429.6
990.035	4382.6
990.332	4364.07
990.63	4382.37
990.927	4343.95
991.224	4323.39
991.521	4360.9
991.819	4295.59
992.116	4267.12
992.413	4229.15
992.71	4170.62
993.006	4176.5
993.303	4162.72
993.6	4159.1
993.897	4139.67
994.193	4100.57
994.49	4083.62
994.787	4047.92
995.083	4051.76
995.379	4013.57
995.676	3983.51
995.972	3968.82
996.268	3995.49
996.565	3896.06
996.861	3946.22
997.157	3916.17
997.453	3857.86
997.749	3890.63
998.044	3859.67
998.34	3802.95
998.636	3811.31
998.932	3776.96
999.227	3737.64
999.523	3746.23
999.818	3687.7
1000.114	3729.05
1000.409	3667.59
1000.704	3689.28
1001	3619.45
1001.295	3582.84
1001.59	3595.95
1001.885	3558.89
1002.18	3542.84
1002.475	3546.46
1002.77	3512.34
1003.065	3514.37
1003.359	3476.63
1003.654	3450.19
1003.949	3441.15
1004.243	3417.42
1004.538	3374.04
1004.832	3376.07
1005.127	3343.98
1005.421	3379.46
1005.715	3338.1
1006.009	3310.31
1006.304	3252.68
1006.598	3285.45
1006.892	3242.97
1007.186	3231.89
1007.48	3188.96
1007.773	3158.22
1008.067	3162.29
1008.361	3167.49
1008.655	3103.08
1008.948	3058.79
1009.242	3103.31
1009.535	3063.08
1009.829	3033.03
1010.122	3030.77
1010.415	2993.03
1010.708	2955.97
1011.001	2976.08
1011.295	2953.71
1011.588	2966.14
1011.881	2958.68
1012.173	2899.02
1012.466	2881.17
1012.759	2863.09
1013.052	2887.49
1013.344	2852.02
1013.637	2845.24
1013.93	2773.15
1014.222	2813.82
1014.514	2774.73
1014.807	2712.58
1015.099	2738.57
1015.391	2709.19
1015.683	2672.59
1015.976	2661.06
1016.268	2664.45
1016.56	2615.86
1016.851	2621.96
1017.143	2593.72
1017.435	2587.16
1017.727	2563.66
1018.018	2569.76
1018.31	2553.49
1018.602	2529.76
1018.893	2476.43
1019.185	2464.45
1019.476	2478.47
1019.767	2423.33
1020.058	2452.7
1020.35	2371.12
1020.641	2381.75
1020.932	2365.25
1021.223	2338.13
1021.514	2339.71
1021.804	2319.6
1022.095	2334.74
1022.386	2282.31
1022.677	2297.91
1022.967	2215.42
1023.258	2207.29
1023.548	2228.98
1023.839	2205.03
1024.129	2188.08
1024.419	2159.15
1024.709	2157.12
1025	2129.32
1025.29	2132.71
1025.58	2131.58
1025.87	2068.99
1026.16	2096.1
1026.449	2060.17
1026.739	2063.11
1027.029	2052.49
1027.319	2005.26
1027.608	2007.74
1027.898	1974.3
1028.187	1996.9
1028.477	2009.78
1028.766	1933.17
1029.055	1946.28
1029.344	1938.59
1029.634	1897.92
1029.923	1904.02
1030.212	1883.45
1030.501	1864.24
1030.79	1856.11
1031.078	1845.49
1031.367	1836.9
1031.656	1857.01
1031.945	1816.34
1032.233	1790.57
1032.522	1773.17
1032.81	1739.28
1033.099	1752.38
1033.387	1733.17
1033.675	1761.65
1033.963	1727.3
1034.251	1699.05
1034.54	1695.66
1034.828	1703.35
1035.116	1662.89
1035.403	1661.99
1035.691	1628.32
1035.979	1624.03
1036.267	1629.67
1036.554	1609.11
1036.842	1573.18
1037.129	1595.55
1037.417	1565.27
1037.704	1574.53
1037.992	1560.3
1038.279	1548.32
1038.566	1525.72
1038.853	1525.72
1039.14	1525.72
