Data from 214_FLMS001491_003.txt Node
Date: Thu Apr 19 16:36:41 BST 2018
User: hsy
Spectrometer: FLMS00149
Trigger mode: 0
Integration Time (sec): 1.000000E-2
Scans to average: 10
Electric dark correction enabled: true
Nonlinearity correction enabled: false
Boxcar width: 0
XAxis mode: Wavelengths
Number of Pixels in Spectrum: 2048
>>>>>Begin Spectral Data<<<<<
341.393	0.07
341.776	0.07
342.16	0.07
342.543	-41.74
342.927	-54.17
343.31	-67.5
343.693	-75.86
344.077	-62.53
344.46	-55.97
344.843	-50.55
345.226	-23.88
345.61	-45.58
345.993	-5.58
346.376	-1.06
346.759	9.56
347.142	16.34
347.525	36
347.908	54.98
348.291	72.39
348.674	91.37
349.057	107.86
349.44	120.75
349.823	150.35
350.206	175.21
350.588	229.44
350.971	259.27
351.354	256.56
351.737	266.5
352.119	271.93
352.502	291.81
352.884	323.9
353.267	314.64
353.65	321.64
354.032	347.63
354.414	350.57
354.797	345.6
355.179	327.29
355.562	358.25
355.944	375.65
356.326	383.56
356.709	390.12
357.091	365.94
357.473	372.04
357.855	378.37
358.238	383.11
358.62	374.3
359.002	390.79
359.384	375.2
359.766	378.37
360.148	395.99
360.53	374.3
360.912	397.8
361.294	399.61
361.676	370
362.057	394.64
362.439	374.52
362.821	370.91
363.203	367.97
363.584	398.7
363.966	376.56
364.348	386.28
364.729	375.43
365.111	365.48
365.493	386.28
365.874	364.58
366.256	367.07
366.637	355.32
367.019	381.53
367.4	379.04
367.781	376.78
368.163	366.16
368.544	379.04
368.925	391.02
369.306	380.17
369.688	380.17
370.069	381.3
370.45	371.13
370.831	366.84
371.212	367.52
371.593	364.81
371.974	383.11
372.355	384.47
372.736	410.68
373.117	392.6
373.498	393.05
373.879	403.22
374.26	403.22
374.641	352.38
375.021	395.77
375.402	395.77
375.783	395.77
376.163	408.42
376.544	413.17
376.925	394.18
377.305	380.4
377.686	411.36
378.066	423.79
378.447	419.27
378.827	392.83
379.208	405.71
379.588	384.92
379.968	407.74
380.349	418.14
380.729	415.65
381.109	424.24
381.489	410.91
381.87	428.53
382.25	432.38
382.63	428.31
383.01	450.68
383.39	435.99
383.77	461.3
384.15	434.41
384.53	447.97
384.91	445.03
385.29	463.56
385.67	459.27
386.049	461.08
386.429	456.78
386.809	446.61
387.189	441.64
387.568	457.91
387.948	482.32
388.328	454.3
388.707	468.08
389.087	475.99
389.466	499.27
389.846	480.51
390.225	499.27
390.605	510.79
390.984	475.31
391.363	504.92
391.743	495.42
392.122	486.39
392.501	512.15
392.881	530.45
393.26	518.93
393.639	539.94
394.018	528.87
394.397	536.78
394.776	516.67
395.155	533.84
395.534	541.07
395.913	530.45
396.292	541.98
396.671	552.37
397.05	553.95
397.429	546.5
397.808	530.9
398.186	580.62
398.565	569.77
398.944	578.36
399.323	577.46
399.701	574.74
400.08	585.37
400.458	579.72
400.837	551.47
401.215	591.02
401.594	589.89
401.972	601.86
402.351	616.78
402.729	589.21
403.107	599.6
403.486	621.98
403.864	638.47
404.242	628.98
404.62	620.17
404.999	650.45
405.377	641.86
405.755	654.52
406.133	651.58
406.511	655.42
406.889	664.23
407.267	689.77
407.645	704.23
408.023	696.55
408.401	694.52
408.779	705.59
409.156	720.73
409.534	698.58
409.912	731.58
410.29	738.81
410.667	750.33
411.045	740.62
411.422	758.92
411.8	754.63
412.178	773.38
412.555	792.37
412.933	800.95
413.31	801.18
413.687	810.67
414.065	829.88
414.442	827.39
414.819	842.53
415.197	835.98
415.574	842.31
415.951	847.05
416.328	841.4
416.705	890.22
417.082	875.53
417.46	882.08
417.837	898.13
418.214	900.16
418.591	919.82
418.967	920.95
419.344	895.41
419.721	931.35
420.098	925.92
420.475	951.23
420.852	966.37
421.228	960.72
421.605	974.28
421.982	976.54
422.358	991.68
422.735	995.3
423.111	988.29
423.488	1021.29
423.864	1027.84
424.241	1002.53
424.617	1037.78
424.994	1040.04
425.37	1073.49
425.746	1044.56
426.123	1080.49
426.499	1075.52
426.875	1110.78
427.251	1105.35
427.627	1134.28
428.003	1116.2
428.379	1150.32
428.756	1147.84
429.132	1160.49
429.507	1216.76
429.883	1197.33
430.259	1211.11
430.635	1254.05
431.011	1245.91
431.387	1256.99
431.763	1264.44
432.138	1299.47
432.514	1301.51
432.89	1314.61
433.265	1341.05
433.641	1380.83
434.016	1364.1
434.392	1378.34
434.767	1399.58
435.143	1403.65
435.518	1412.46
435.894	1437.77
436.269	1451.78
436.644	1461.5
437.02	1495.62
437.395	1490.65
437.77	1503.31
438.145	1543.76
438.52	1533.59
438.895	1578.11
439.271	1550.09
439.646	1588.96
440.021	1596.86
440.395	1601.16
440.77	1602.97
441.145	1575.17
441.52	1645.68
441.895	1646.81
442.27	1674.83
442.645	1655.85
443.019	1634.6
443.394	1696.52
443.769	1673.92
444.143	1687.48
444.518	1720.93
444.892	1720.48
445.267	1739.69
445.641	1729.74
446.016	1756.18
446.39	1750.76
446.764	1743.3
447.139	1789.63
447.513	1747.37
447.887	1789.18
448.262	1772.91
448.636	1804.77
449.01	1838.21
449.384	1849.51
449.758	1847.48
450.132	1856.74
450.506	1888.16
450.88	1916.18
451.254	1891.55
451.628	1915.95
452.002	1932.22
452.376	1962.05
452.75	1964.31
453.123	1976.97
453.497	1992.11
453.871	2020.58
454.244	2036.18
454.618	2060.81
454.992	2093.12
455.365	2124.31
455.739	2153.01
456.112	2154.82
456.486	2178.54
456.859	2195.27
457.232	2265.55
457.606	2279.11
457.979	2233.01
458.352	2343.51
458.725	2357.75
459.099	2369.73
459.472	2362.95
459.845	2450.85
460.218	2449.5
460.591	2449.72
460.964	2481.81
461.337	2509.84
461.71	2558.87
462.083	2569.27
462.456	2576.27
462.829	2565.88
463.201	2628.93
463.574	2610.17
463.947	2676.16
464.32	2717.06
464.692	2699.66
465.065	2720.23
465.438	2734.46
465.81	2767.68
466.183	2791.18
466.555	2878.41
466.928	2900.33
467.3	2832.76
467.672	2896.72
468.045	2968.13
468.417	2967
468.789	2965.87
469.161	3038.86
469.534	3094.9
469.906	3126.99
470.278	3121.12
470.65	3106.43
471.022	3240.89
471.394	3256.93
471.766	3264.17
472.138	3306.2
472.51	3322.02
472.882	3371.28
473.253	3440.66
473.625	3452.86
473.997	3534.67
474.369	3515.91
474.74	3560.43
475.112	3649.01
475.484	3680.88
475.855	3778.73
476.227	3764.94
476.598	3894.21
476.97	3878.39
477.341	3956.8
477.713	3995.9
478.084	4046.29
478.455	4154.09
478.827	4180.98
479.198	4265.27
479.569	4270.92
479.94	4363.8
480.311	4415.1
480.682	4499.39
481.053	4534.64
481.424	4642.89
481.795	4719.72
482.166	4792.49
482.537	4834.97
482.908	4951.35
483.279	4940.96
483.65	5068.41
484.021	5155.64
484.391	5195.64
484.762	5241.06
485.133	5271.12
485.503	5365.58
485.874	5483.32
486.244	5499.36
486.615	5672.92
486.985	5690.09
487.356	5714.5
487.726	5827.49
488.097	5932.8
488.467	5917.43
488.837	6092.79
489.207	6174.82
489.578	6229.06
489.948	6296.63
490.318	6416.85
490.688	6385.89
491.058	6517.19
491.428	6656.84
491.798	6687.58
492.168	6816.16
492.538	6813.22
492.908	6866.33
493.278	6988.59
493.648	7038.08
494.017	7111.75
494.387	7177.28
494.757	7179.99
495.126	7286.43
495.496	7291.63
495.866	7376.6
496.235	7404.17
496.605	7514.45
496.974	7535.69
497.344	7632.64
497.713	7742.92
498.082	7789.24
498.452	7841.45
498.821	7876.93
499.19	7938.39
499.559	7956.92
499.928	7944.04
500.298	8039.41
500.667	8089.35
501.036	8058.39
501.405	8124.83
501.774	8140.2
502.143	8234.88
502.512	8273.98
502.88	8382.68
503.249	8316.91
503.618	8405.27
503.987	8480.3
504.356	8454.76
504.724	8440.07
505.093	8558.94
505.462	8573.63
505.83	8642.33
506.199	8632.61
506.567	8795.77
506.936	8760.74
507.304	8811.59
507.672	8876
508.041	8923.9
508.409	8998.03
508.777	9038.93
509.145	9118.47
509.514	9085.48
509.882	9132.71
510.25	9203.22
510.618	9238.25
510.986	9235.31
511.354	9323.89
511.722	9426.49
512.09	9485.02
512.458	9450.22
512.826	9554.17
513.193	9555.07
513.561	9574.51
513.929	9618.12
514.297	9788.29
514.664	9811.11
515.032	9856.99
515.4	10036.87
515.767	9948.06
516.135	10058.11
516.502	10050.2
516.869	10229.63
517.237	10219.24
517.604	10154.61
517.972	10393.7
518.339	10436.63
518.706	10451.32
519.073	10510.08
519.44	10572.9
519.808	10596.18
520.175	10691.99
520.542	10790.97
520.909	10795.94
521.276	10896.51
521.643	11027.13
522.009	11155.71
522.376	11280.68
522.743	11285.42
523.11	11432.76
523.477	11546.89
523.843	11563.16
524.21	11758.41
524.577	11791.62
524.943	11898.06
525.31	11941.68
525.676	12162.01
526.043	12232.97
526.409	12311.16
526.776	12399.52
527.142	12512.51
527.508	12554.99
527.874	12747.08
528.241	12757.48
528.607	12795.44
528.973	12959.28
529.339	13069.33
529.705	13160.63
530.071	13319.95
530.437	13458.25
530.803	13501.86
531.169	13624.57
531.535	13621.41
531.901	13717
532.267	13813.72
532.632	13915.86
532.998	13985.69
533.364	14131
533.73	14127.83
534.095	14228.85
534.461	14310.43
534.826	14286.93
535.192	14513.36
535.557	14502.51
535.923	14604.88
536.288	14691.21
536.653	14759.46
537.019	14783.18
537.384	14883.3
537.749	14934.37
538.114	15011.2
538.479	15027.7
538.845	15136.85
539.21	15141.82
539.575	15229.95
539.94	15338.88
540.305	15409.61
540.67	15377.07
541.034	15491.87
541.399	15626.33
541.764	15542.71
542.129	15617.74
542.494	15589.27
542.858	15775.02
543.223	15708.81
543.587	15780.45
543.952	15857.51
544.316	15941.12
544.681	15938.41
545.045	16092.53
545.41	16193.54
545.774	16150.61
546.138	16206.42
546.503	16321.68
546.867	16236.03
547.231	16423.59
547.595	16413.88
547.959	16470.6
548.324	16597.37
548.688	16535.46
549.052	16667.88
549.416	16721.21
549.779	16704.94
550.143	16776.35
550.507	17010.7
550.871	16923.47
551.235	16915.11
551.599	17189.68
551.962	17237.36
552.326	17220.41
552.689	17266.74
553.053	17291.82
553.417	17336.34
553.78	17586.27
554.143	17595.54
554.507	17686.16
554.87	17820.62
555.234	17950.56
555.597	17821.52
555.96	18015.87
556.323	18121.85
556.686	18149.2
557.05	18287.27
557.413	18325.01
557.776	18387.84
558.139	18579.47
558.502	18618.11
558.865	18683.2
559.228	18820.82
559.59	18936.52
559.953	18986.01
560.316	19172.67
560.679	19303.74
561.041	19330.86
561.404	19565.43
561.767	19739.21
562.129	19686.33
562.492	20031.63
562.854	20075.25
563.217	20251.06
563.579	20276.37
563.941	20435.24
564.304	20668.45
564.666	20855.12
565.028	20886.53
565.39	21136.46
565.753	21214.43
566.115	21404.93
566.477	21561.31
566.839	21813.06
567.201	22012.15
567.563	22076.55
567.925	22310.44
568.287	22441.29
568.648	22671.34
569.01	22836.53
569.372	23098.67
569.734	23197.43
570.095	23515.61
570.457	23592.44
570.819	23687.36
571.18	23929.61
571.542	24114.92
571.903	24271.75
572.265	24412.31
572.626	24820.89
572.987	24783.37
573.349	24955.12
573.71	25213.87
574.071	25316.92
574.432	25545.16
574.794	25958.03
575.155	25943.57
575.516	26073.51
575.877	26249.55
576.238	26455.65
576.599	26550.78
576.96	26751.46
577.32	26956.88
577.681	27025.8
578.042	27259.69
578.403	27456.3
578.763	27483.19
579.124	27593.92
579.485	27887.7
579.845	28084.3
580.206	28120.01
580.566	28195.94
580.927	28373.11
581.287	28571.97
581.648	28690.16
582.008	28936.48
582.368	29039.08
582.728	29159.3
583.089	29353.2
583.449	29576.69
583.809	29730.36
584.169	30081.54
584.529	30040.41
584.889	30560.85
585.249	30629.77
585.609	30752.26
585.969	31101.85
586.329	31248.97
586.688	31651.67
587.048	31932.11
587.408	32262.05
587.768	32396.96
588.127	32830.85
588.487	33040.11
588.846	33611.39
589.206	33677.38
589.565	33950.14
589.925	34620.86
590.284	34910.57
590.643	35171.58
591.003	35707.15
591.362	36345.56
591.721	36560.24
592.08	36989.15
592.44	37515.02
592.799	37854.22
593.158	38322.68
593.517	38522.9
593.876	39152.49
594.235	39449.88
594.593	39849.87
594.952	40404.43
595.311	40834.03
595.67	41250.51
596.029	42044.84
596.387	42405.96
596.746	43010.01
597.104	43233.74
597.463	43730.22
597.822	44356.19
598.18	44472.35
598.538	44792.79
598.897	45591.87
599.255	45770.62
599.613	46706.41
599.972	46806.3
600.33	47203.58
600.688	47526.96
601.046	47978.24
601.404	48584.1
601.762	48859.58
602.12	49370.52
602.478	49659.78
602.836	49927.8
603.194	50177.96
603.552	50635.58
603.91	50865.4
604.268	51252.96
604.625	51513.74
604.983	51906.28
605.341	51942.21
605.698	52520.95
606.056	52793.48
606.413	52833.48
606.771	53344.66
607.128	53417.2
607.485	53609.06
607.843	53888.37
608.2	54269.6
608.557	54446.77
608.914	54636.37
609.272	54833.66
609.629	55220.99
609.986	55423.02
610.343	55557.48
610.7	55844.25
611.057	55951.82
611.414	56057.81
611.771	56358.14
612.127	56458.02
612.484	56653.5
612.841	56852.81
613.198	56900.72
613.554	56953.83
613.911	57302.07
614.267	57434.04
614.624	57450.99
614.98	57644.2
615.337	57905.44
615.693	57980.02
616.05	58079.9
616.406	58296.62
616.762	58260.23
617.118	58375.94
617.475	58449.61
617.831	58629.72
618.187	58775.7
618.543	58826.09
618.899	59024.51
619.255	59019.54
619.611	59086.43
619.967	59292.97
620.323	59381.56
620.678	59376.81
621.034	59444.61
621.39	59479.86
621.746	59537.49
622.101	59821.77
622.457	59622.46
622.812	59869.23
623.168	59848.89
623.523	59860.87
623.879	60012.96
624.234	59963.92
624.589	60042.79
624.945	60127.3
625.3	60181.77
625.655	60191.71
626.01	60229.22
626.365	60300.41
626.72	60248.2
627.075	60245.94
627.43	60324.36
627.785	60431.48
628.14	60351.03
628.495	60437.58
628.85	60447.07
629.205	60449.33
629.559	60602.54
629.914	60433.96
630.269	60471.02
630.623	60396.22
630.978	60356.9
631.332	60509.44
631.687	60561.19
632.041	60485.03
632.396	60504.02
632.75	60483.45
633.104	60526.84
633.459	60427.63
633.813	60419.5
634.167	60423.57
634.521	60468.54
634.875	60473.06
635.229	60415.21
635.583	60339.95
635.937	60351.7
636.291	60371.14
636.645	60340.4
636.999	60253.63
637.352	60365.94
637.706	60205.95
638.06	60275.1
638.413	60253.63
638.767	60174.08
639.121	60185.61
639.474	60112.39
639.828	60113.52
640.181	60092.5
640.534	60137.25
640.888	60080.07
641.241	59994.43
641.594	60010.92
641.947	60089.11
642.301	59977.93
642.654	60028.1
643.007	59911.49
643.36	59946.74
643.713	59958.49
644.066	60000.07
644.419	59790.59
644.771	59563.7
645.124	59316.25
645.477	59341.11
645.83	59294.1
646.182	59260.21
646.535	59208.68
646.888	59187.21
647.24	59174.33
647.593	59274.44
647.945	59137.95
648.298	59091.85
648.65	58974.79
649.002	58841.46
649.355	58902.25
649.707	58706.78
650.059	58789.71
650.411	59111.74
650.763	59148.35
651.115	59598.96
651.467	59447.55
651.819	59408.68
652.171	59271.96
652.523	59318.96
652.875	59255.01
653.227	59176.14
653.578	59455.46
653.93	59265.86
654.282	59191.28
654.633	59213.65
654.985	59220.21
655.337	59216.37
655.688	59224.28
656.039	59259.3
656.391	59095.01
656.742	59110.38
657.094	59101.57
657.445	59042.13
657.796	59130.04
658.147	59073.09
658.498	59178.18
658.849	59151.74
659.2	59030.83
659.551	59030.38
659.902	59170.72
660.253	59014.34
660.604	59120.78
660.955	58994.68
661.306	59101.79
661.656	59018.18
662.007	59004.85
662.358	59001.46
662.708	59026.77
663.059	58975.47
663.409	58835.81
663.76	59035.13
664.11	59009.82
664.461	59062.92
664.811	59034.9
665.161	59013.21
665.511	58904.06
665.862	58929.14
666.212	58977.5
666.562	58988.35
666.912	58935.7
667.262	58910.16
667.612	58929.14
667.962	58989.93
668.312	58933.21
668.662	59014.34
669.011	59007.56
669.361	58966.66
669.711	58967.33
670.06	58866.32
670.41	58859.99
670.76	58847.79
671.109	58962.81
671.459	58857.05
671.808	58890.27
672.157	58963.27
672.507	58789.71
672.856	58813.67
673.205	58785.19
673.554	58878.52
673.904	58810.73
674.253	58951.06
674.602	58840.33
674.951	58523.73
675.3	58339.33
675.649	58863.16
675.998	58734.8
676.346	58803.72
676.695	58809.82
677.044	58647.57
677.393	58702.26
677.741	58834.91
678.09	58712.65
678.438	58675.36
678.787	58688.02
679.135	58625.65
679.484	58504.75
679.832	58595.14
680.181	58557.17
680.529	58566.44
680.877	58413.9
681.225	58439.89
681.573	58627.91
681.922	58391.76
682.27	58397.86
682.618	58304.98
682.966	58329.16
683.314	58276.73
683.661	58166.68
684.009	58166.45
684.357	58125.1
684.705	58055.95
685.053	58137.07
685.4	57952.22
685.748	57883.29
686.095	57994.7
686.443	57737.31
686.79	57783.64
687.138	57828.83
687.485	57779.12
687.832	57596.52
688.18	57642.62
688.527	57589.97
688.874	57571.66
689.221	57522.63
689.568	57383.87
689.915	57232.01
690.262	57377.32
690.609	57272.01
690.956	57164.67
691.303	57152.47
691.65	57046.71
691.997	57045.12
692.344	56792.7
692.69	56814.85
693.037	56797.45
693.383	56616.89
693.73	56717.22
694.077	56533.95
694.423	56514.52
694.769	56398.14
695.116	56434.52
695.462	56311.36
695.808	56187.97
696.155	56341.87
696.501	56035.66
696.847	56066.17
697.193	55885.61
697.539	55969.9
697.885	55761.99
698.231	55638.16
698.577	55654.65
698.923	55590.25
699.269	55334.89
699.614	55321.33
699.96	55212.63
700.306	55349.58
700.651	55128.56
700.997	55011.51
701.342	54974.9
701.688	54914.78
702.033	54805.18
702.379	54854.22
702.724	54648.58
703.069	54675.47
703.415	54371.07
703.76	54420.33
704.105	54360.22
704.45	54312.54
704.795	54247.46
705.14	54096.05
705.485	54094.02
705.83	53945.09
706.175	54045.88
706.52	53897.86
706.865	53852.67
707.209	53644.54
707.554	53753.01
707.899	53742.16
708.243	53568.15
708.588	53480.25
708.932	53409.74
709.277	53299.01
709.621	53212.91
709.966	53000.26
710.31	53172.01
710.654	52874.61
710.998	52998
711.342	52991.22
711.687	52786.71
712.031	52778.12
712.375	52594.17
712.719	52542.64
713.063	52517.33
713.407	52631
713.75	52467.84
714.094	52489.99
714.438	52346.49
714.782	52264.01
715.125	52153.95
715.469	52304.01
715.812	51970.68
716.156	51916.67
716.499	51911.7
716.843	52028.31
717.186	51708.32
717.53	51884.36
717.873	51850.46
718.216	51677.13
718.559	51610.92
718.902	51326.63
719.246	51509
719.589	51382.9
719.932	51234.2
720.275	51360.53
720.617	51301.77
720.96	51174.09
721.303	51212.06
721.646	51202.57
721.989	51005.51
722.331	51052.29
722.674	50871.28
723.016	50928.45
723.359	50826.3
723.701	50859.75
724.044	50745.85
724.386	50671.51
724.729	50735.91
725.071	50666.54
725.413	50574.79
725.755	50442.59
726.097	50320.1
726.439	50297.51
726.782	50126.66
727.124	50336.6
727.465	50269.71
727.807	50081.69
728.149	50236.72
728.491	49987.91
728.833	50007.57
729.175	49914.01
729.516	49863.62
729.858	49859.78
730.199	49876.73
730.541	49809.16
730.882	49767.35
731.224	49779.78
731.565	49595.6
731.906	49533.91
732.248	49662.04
732.589	49357.19
732.93	49332.11
733.271	49348.83
733.612	49251.43
733.953	49393.35
734.294	49277.87
734.635	49038.56
734.976	49297.98
735.317	49139.8
735.658	49093.92
735.999	48982.51
736.339	48994.04
736.68	49004.88
737.021	48935.28
737.361	48689.86
737.702	48988.84
738.042	48766.92
738.383	48838.79
738.723	48749.75
739.063	48615.52
739.404	48723.99
739.744	48539.59
740.084	48328.52
740.424	48595.63
740.764	48378.01
741.104	48518.57
741.444	48370.55
741.784	48241.06
742.124	48321.06
742.464	48288.07
742.804	48122.42
743.143	48151.8
743.483	48141.63
743.823	47996.77
744.162	48044.01
744.502	48104.79
744.841	47810.34
745.181	48063.67
745.52	47905.93
745.86	47865.7
746.199	47771.92
746.538	47665.26
746.877	47902.09
747.216	47795.42
747.556	47608.31
747.895	47644.47
748.234	47678.59
748.573	47481.53
748.911	47507.52
749.25	47425.72
749.589	47258.04
749.928	47329.67
750.267	47294.87
750.605	47060.75
750.944	47044.71
751.283	46978.27
751.621	47052.17
751.96	46780.54
752.298	46908.89
752.636	46738.5
752.975	46741.89
753.313	46546.87
753.651	46752.97
753.989	46487.21
754.327	46614.21
754.666	46168.8
755.004	46399.75
755.342	46271.85
755.679	46350.72
756.017	45966.55
756.355	46090.16
756.693	45962.03
757.031	46113.43
757.368	45710.73
757.706	45777.17
758.044	45583.28
758.381	45671.86
758.719	45407.01
759.056	45574.47
759.394	45397.07
759.731	45032.78
760.068	44998.66
760.405	45137.19
760.743	44860.36
761.08	44953.92
761.417	44492.69
761.754	44588.73
762.091	44572.68
762.428	44224.22
762.765	44095.41
763.102	44376.08
763.438	44165.46
763.775	43807.28
764.112	43815.87
764.449	43838.47
764.785	43557.12
765.122	43307.86
765.458	43198.03
765.795	43176.34
766.131	43064.25
766.467	42876.46
766.804	42652.06
767.14	42544.49
767.476	42507.43
767.812	42366.87
768.148	42374.78
768.485	42322.12
768.821	41899.08
769.157	41863.83
769.492	41845.98
769.828	41662.25
770.164	41240.34
770.5	41176.39
770.836	41237.86
771.171	41104.3
771.507	40983.17
771.842	40603.07
772.178	40716.06
772.513	40601.94
772.849	40365.56
773.184	40343.19
773.519	40225
773.855	40047.15
774.19	39938.46
774.525	39663.66
774.86	39661.17
775.195	39434.97
775.53	39239.04
775.865	39147.52
776.2	38830.24
776.535	38654.65
776.87	38619.85
777.205	38494.88
777.539	38390.7
777.874	38387.54
778.209	38031.61
778.543	38146.41
778.878	37828.91
779.212	37785.52
779.547	37623.49
779.881	37513.89
780.215	37297.85
780.55	37294.91
780.884	36931.98
781.218	36874.36
781.552	36961.13
781.886	36633.23
782.22	36441.6
782.554	36395.05
782.888	36155.73
783.222	36096.52
783.556	35950.31
783.889	35783.99
784.223	35531.11
784.557	35544.45
784.89	35495.63
785.224	35238.47
785.557	35127.73
785.891	35226.49
786.224	34972.71
786.558	34908.76
786.891	34715.09
787.224	34468.32
787.557	34223.8
787.891	34238.72
788.224	34238.04
788.557	34117.59
788.89	34076.69
789.223	33960.76
789.556	33715.57
789.888	33577.72
790.221	33392.41
790.554	33228.35
790.887	33243.94
791.219	33205.75
791.552	33162.59
791.884	32907.23
792.217	32890.51
792.549	32736.61
792.882	32529.38
793.214	32406.22
793.546	32470.18
793.879	32272.89
794.211	31967.37
794.543	32165.55
794.875	31865.22
795.207	31817.09
795.539	31802.85
795.871	31756.52
796.203	31628.84
796.535	31328.29
796.867	31386.59
797.198	31128.74
797.53	31055.3
797.862	30859.82
798.193	31026.37
798.525	30678.13
798.856	30860.05
799.188	30303.91
799.519	30398.59
799.85	30294.64
800.182	30288.09
800.513	30313.17
800.844	29798.84
801.175	30129.67
801.506	30057.59
801.837	29894.88
802.168	29871.38
802.499	29739.18
802.83	29578.28
803.161	29491.5
803.491	29454.44
803.822	29494.89
804.153	29241.11
804.483	29131.73
804.814	29025.3
805.145	28958.18
805.475	28938.29
805.805	28911.63
806.136	28996.6
806.466	28759.77
806.796	28625.98
807.126	28462.6
807.457	28534.01
807.787	28455.37
808.117	28312.55
808.447	28222.38
808.777	28284.3
809.107	27935.83
809.436	28056.06
809.766	27866.68
810.096	27974.25
810.426	27781.71
810.755	27860.58
811.085	27585.56
811.414	27722.28
811.744	27437.99
812.073	27483.64
812.403	27327.71
812.732	27249.07
813.061	27390.31
813.39	27066.48
813.719	26993.26
814.049	27254.04
814.378	27121.39
814.707	26890.89
815.036	27019.7
815.365	26708.97
815.693	26641.86
816.022	26679.82
816.351	26638.69
816.68	26450.9
817.008	26575.64
817.337	26129.1
817.665	26159.83
817.994	26240.06
818.322	26319.83
818.651	26076.45
818.979	26078.48
819.307	26010.91
819.636	26027.41
819.964	25950.57
820.292	26008.2
820.62	25858.37
820.948	25939.73
821.276	26053.4
821.604	25950.35
821.932	26009.1
822.259	25923.23
822.587	25865.83
822.915	25807.3
823.243	25793.29
823.57	25681.88
823.898	25821.54
824.225	25870.35
824.553	25813.86
824.88	25828.09
825.207	25897.47
825.535	25701.09
825.862	25957.13
826.189	25833.74
826.516	25972.95
826.843	25967.52
827.17	25998.48
827.497	25847.53
827.824	25815.44
828.151	25944.25
828.478	25799.62
828.805	25977.47
829.131	25826.06
829.458	25931.14
829.785	25660.86
830.111	25843.68
830.438	25974.3
830.764	25818.15
831.09	26008.65
831.417	25814.31
831.743	25988.54
832.069	25880.75
832.395	25836.23
832.722	25848.66
833.048	25661.99
833.374	25770.24
833.7	25723.46
834.026	25691.15
834.351	25743.35
834.677	25729.34
835.003	25703.12
835.329	25660.41
835.654	25649.11
835.98	25416.58
836.306	25554.88
836.631	25448.89
836.956	25644.82
837.282	25493.19
837.607	25496.58
837.932	25348.1
838.258	25395.56
838.583	25302.91
838.908	25218.39
839.233	25307.88
839.558	25165.74
839.883	25157.6
840.208	25018.62
840.533	25077.83
840.858	25117.15
841.182	24995.8
841.507	24976.82
841.832	24769.14
842.156	24899.98
842.481	24863.37
842.805	24735.47
843.13	24673.77
843.454	24750.38
843.778	24586.09
844.103	24529.6
844.427	24504.06
844.751	24549.26
845.075	24421.35
845.399	24258.87
845.723	24188.14
846.047	24187.01
846.371	24043.73
846.695	24137.52
847.019	23898.88
847.343	23704.76
847.666	23624.08
847.99	23611.43
848.313	23474.93
848.637	23394.48
848.96	23398.78
849.284	23265.45
849.607	23212.57
849.931	23057.77
850.254	22872.01
850.577	22805.35
850.9	22618.46
851.223	22629.08
851.546	22554.51
851.869	22514.51
852.192	22594.96
852.515	22376.66
852.838	22244.46
853.161	22225.7
853.483	22033.39
853.806	22098.92
854.129	21890.79
854.451	21962.43
854.774	21707.97
855.096	21813.73
855.419	21686.05
855.741	21613.51
856.063	21473.63
856.385	21348.89
856.708	21427.98
857.03	21270.7
857.352	21288.32
857.674	21228.44
857.996	21130.36
858.318	21023.47
858.64	21048.1
858.961	20950.93
859.283	20860.77
859.605	20805.63
859.926	20874.32
860.248	20762.91
860.57	20651.96
860.891	20540.1
861.212	20588.91
861.534	20517.05
861.855	20418.97
862.176	20446.76
862.498	20430.95
862.819	20520.66
863.14	20405.64
863.461	20216.49
863.782	20265.07
864.103	20282.93
864.424	20097.62
864.745	20195.02
865.065	20049.03
865.386	19982.37
865.707	19953.9
866.027	20047.45
866.348	19867.12
866.668	19970.84
866.989	19842.49
867.309	19703.28
867.63	19739.66
867.95	19799.55
868.27	19660.57
868.59	19706.45
868.91	19577.86
869.23	19536.96
869.55	19534.7
869.87	19660.12
870.19	19410.18
870.51	19428.94
870.83	19403.63
871.15	19353.01
871.469	19283.18
871.789	19398.43
872.109	19323.18
872.428	19186.01
872.748	19323.18
873.067	19163.63
873.386	19251.99
873.706	19149.17
874.025	19142.84
874.344	19033.02
874.663	19093.58
874.982	18971.78
875.301	18987.82
875.62	18915.51
875.939	18868.5
876.258	18900.59
876.577	18788.73
876.896	18868.73
877.214	18744.66
877.533	18773.81
877.852	18681.84
878.17	18721.61
878.489	18684.55
878.807	18674.61
879.125	18631.9
879.444	18579.92
879.762	18513.71
880.08	18664.89
880.398	18415.41
880.716	18512.13
881.034	18422.19
881.352	18393.94
881.67	18320.49
881.988	18288.63
882.306	18208.86
882.624	18321.4
882.941	18156.2
883.259	18199.37
883.577	18166.6
883.894	18080.73
884.212	17996.89
884.529	18029.43
884.846	17899.49
885.164	17894.29
885.481	17842.09
885.798	17820.17
886.115	17728.19
886.432	17845.25
886.75	17722.09
887.067	17752.82
887.383	17689.1
887.7	17598.48
888.017	17470.8
888.334	17401.42
888.651	17404.36
888.967	17325.94
889.284	17301.08
889.6	17275.55
889.917	17196.91
890.233	17212.73
890.55	17209.34
890.866	17130.47
891.182	16958.72
891.498	17062.45
891.815	16989
892.131	16865.62
892.447	16850.93
892.763	16854.09
893.079	16754.66
893.395	16767.99
893.71	16713.3
894.026	16656.58
894.342	16586.98
894.657	16529.13
894.973	16504.95
895.289	16455.91
895.604	16379.53
895.92	16301.79
896.235	16302.47
896.55	16318.29
896.865	16156.26
897.181	16137.27
897.496	16082.13
897.811	16006.88
898.126	15989.25
898.441	15949.93
898.756	15874
899.071	15832.42
899.386	15746.55
899.7	15644.63
900.015	15618.42
900.33	15455.71
900.644	15541.58
900.959	15402.15
901.273	15432.21
901.588	15313.34
901.902	15256.39
902.216	15196.51
902.531	15194.25
902.845	15116.74
903.159	15077.41
903.473	14956.74
903.787	14934.82
904.101	14743.86
904.415	14791.32
904.729	14779.12
905.042	14766.01
905.356	14662.06
905.67	14671.32
905.984	14565.56
906.297	14512.23
906.611	14375.96
906.924	14420.71
907.237	14281.95
907.551	14333.25
907.864	14237.21
908.177	14163.31
908.491	14121.28
908.804	14027.05
909.117	14013.94
909.43	13841.29
909.743	13822.08
910.056	13858.01
910.368	13735.53
910.681	13734.62
910.994	13681.52
911.307	13545.93
911.619	13483.78
911.932	13502.09
912.244	13466.38
912.557	13436.33
912.869	13319.72
913.181	13311.59
913.494	13222.55
913.806	13212.15
914.118	13082.44
914.43	13055.77
914.742	12994.53
915.054	12903.46
915.366	12911.37
915.678	12826.4
915.99	12752.05
916.302	12721.77
916.613	12680.19
916.925	12652.85
917.236	12646.97
917.548	12555.9
917.859	12534.66
918.171	12398.61
918.482	12297.6
918.794	12312.06
919.105	12237.49
919.416	12168.79
919.727	12218.28
920.038	12175.8
920.349	12056.25
920.66	11981.22
920.971	11894.45
921.282	11937.84
921.593	11806.09
921.903	11767.44
922.214	11766.31
922.525	11694.68
922.835	11628.69
923.146	11648.35
923.456	11558.41
923.767	11444.97
924.077	11489.26
924.387	11461.01
924.697	11336.04
925.008	11308.02
925.318	11258.76
925.628	11218.98
925.938	11256.95
926.248	11071.42
926.558	11058.99
926.867	11045.43
927.177	10945.77
927.487	10990.74
927.796	10838.43
928.106	10809.28
928.416	10873.23
928.725	10769.5
929.034	10656.74
929.344	10682.95
929.653	10613.12
929.962	10527.25
930.271	10565.44
930.581	10454.26
930.89	10436.41
931.199	10308.27
931.508	10386.24
931.817	10319.35
932.125	10269.86
932.434	10243.87
932.743	10094.72
933.051	10147.83
933.36	10009.75
933.669	9955.97
933.977	9946.02
934.286	9902.64
934.594	9893.14
934.902	9856.53
935.21	9735.86
935.519	9742.41
935.827	9717.1
936.135	9647.27
936.443	9580.84
936.751	9544.9
937.059	9579.48
937.367	9438.24
937.674	9483.66
937.982	9393.27
938.29	9375.87
938.597	9448.86
938.905	9259.04
939.213	9234.18
939.52	9193.5
939.827	9212.94
940.135	9121.64
940.442	9035.31
940.749	9042.77
941.056	9016.33
941.363	8957.12
941.67	8975.65
941.977	8947.18
942.284	8817.24
942.591	8863.79
942.898	8818.37
943.205	8793.29
943.511	8673.29
943.818	8709.45
944.125	8612.5
944.431	8605.27
944.738	8581.99
945.044	8525.5
945.35	8489.34
945.657	8398.04
945.963	8384.71
946.269	8390.36
946.575	8323.92
946.881	8332.51
947.187	8309.46
947.493	8226.97
947.799	8207.76
948.105	8176.58
948.41	8129.8
948.716	8141.78
949.022	8044.83
949.327	7994.66
949.633	7907.66
949.938	7994.44
950.244	7949.01
950.549	7851.16
950.854	7862.91
951.16	7794.89
951.465	7720.09
951.77	7723.03
952.075	7699.98
952.38	7690.72
952.685	7645.29
952.99	7576.37
953.294	7518.52
953.599	7472.19
953.904	7447.56
954.209	7400.33
954.513	7434
954.818	7400.55
955.122	7374.79
955.426	7345.87
955.731	7244.85
956.035	7225.19
956.339	7235.13
956.643	7159.88
956.948	7111.75
957.252	7133.89
957.556	7169.6
957.86	7090.51
958.163	7047.12
958.467	6968.7
958.771	6936.39
959.075	6918.31
959.378	6855.94
959.682	6900.45
959.985	6828.82
960.289	6732.1
960.592	6743.4
960.896	6761.7
961.199	6741.36
961.502	6722.61
961.805	6674.92
962.108	6638.54
962.411	6643.74
962.714	6569.39
963.017	6539.56
963.32	6587.47
963.623	6443.29
963.926	6460.47
964.228	6400.58
964.531	6362.84
964.833	6394.03
965.136	6309.74
965.438	6288.72
965.741	6273.35
966.043	6197.2
966.345	6212.56
966.648	6192.9
966.95	6142.73
967.252	6185.44
967.554	6115.39
967.856	6090.53
968.158	6056.41
968.46	6093.47
968.761	6017.77
969.063	6043.08
969.365	5971.21
969.666	5925.79
969.968	5849.63
970.269	5923.08
970.571	5846.7
970.872	5818.9
971.174	5820.03
971.475	5752.69
971.776	5777.55
972.077	5668.17
972.378	5669.07
972.679	5684.89
972.98	5646.25
973.281	5566.93
973.582	5605.57
973.883	5564.67
974.183	5503.43
974.484	5491.68
974.785	5459.14
975.085	5473.15
975.386	5444
975.686	5340.72
975.986	5340.72
976.287	5346.6
976.587	5295.3
976.887	5286.49
977.187	5311.57
977.487	5235.64
977.787	5261.4
978.087	5210.33
978.387	5153.61
978.687	5161.97
978.987	5153.83
979.286	5058.02
979.586	5176.66
979.885	5083.78
980.185	5025.7
980.484	4992.71
980.784	5017.11
981.083	4971.24
981.382	4977.79
981.682	4957.68
981.981	4912.71
982.28	4927.4
982.579	4833.39
982.878	4840.4
983.177	4819.6
983.475	4813.5
983.774	4747.29
984.073	4789.55
984.372	4728.31
984.67	4686.5
984.969	4684.92
985.267	4666.16
985.566	4643.56
985.864	4582.77
986.162	4613.96
986.461	4575.77
986.759	4597.24
987.057	4493.06
987.355	4508.65
987.653	4513.17
987.951	4474.98
988.249	4448.09
988.547	4419.16
988.844	4408.77
989.142	4357.47
989.44	4350.69
989.737	4298.04
990.035	4316.34
990.332	4310.01
990.63	4305.27
990.927	4260.07
991.224	4260.52
991.521	4270.47
991.819	4225.72
992.116	4206.97
992.413	4150.92
992.71	4140.75
993.006	4142.33
993.303	4110.25
993.6	4076.12
993.897	4057.59
994.193	4049.23
994.49	4037.93
994.787	3973.75
995.083	3956.58
995.379	3975.79
995.676	3923.36
995.972	3890.82
996.268	3877.93
996.565	3890.59
996.861	3776.24
997.157	3822.79
997.453	3800.42
997.749	3773.76
998.044	3725.17
998.34	3761.78
998.636	3700.09
998.932	3732.63
999.227	3730.14
999.523	3684.49
999.818	3620.77
1000.114	3656.47
1000.409	3590.71
1000.704	3563.82
1001	3581.67
1001.295	3574.89
1001.59	3559.75
1001.885	3501.22
1002.18	3455.12
1002.475	3487.66
1002.77	3463.26
1003.065	3427.1
1003.359	3432.52
1003.654	3449.47
1003.949	3371.96
1004.243	3348.46
1004.538	3364.05
1004.832	3307.78
1005.127	3340.55
1005.421	3290.61
1005.715	3253.32
1006.009	3251.28
1006.304	3215.13
1006.598	3198.63
1006.892	3198.4
1007.186	3125.41
1007.48	3181.23
1007.773	3136.71
1008.067	3101.01
1008.361	3057.62
1008.655	3058.07
1008.948	3039.76
1009.242	3025.98
1009.535	3001.57
1009.829	2971.29
1010.122	2943.95
1010.415	2965.87
1010.708	2910.73
1011.001	2937.85
1011.295	2900.33
1011.588	2920.9
1011.881	2851.75
1012.173	2845.42
1012.466	2819.66
1012.759	2785.99
1013.052	2829.83
1013.344	2779.21
1013.637	2799.32
1013.93	2734.69
1014.222	2744.63
1014.514	2707.34
1014.807	2701.24
1015.099	2674.8
1015.391	2630.28
1015.683	2638.19
1015.976	2651.75
1016.268	2614.92
1016.56	2597.29
1016.851	2574.92
1017.143	2531.98
1017.435	2534.47
1017.727	2497.63
1018.018	2478.42
1018.31	2491.53
1018.602	2483.85
1018.893	2461.47
1019.185	2430.52
1019.476	2397.97
1019.767	2389.39
1020.058	2384.41
1020.35	2365.88
1020.641	2310.29
1020.932	2295.38
1021.223	2362.95
1021.514	2317.52
1021.804	2266
1022.095	2291.76
1022.386	2233.23
1022.677	2273.91
1022.967	2242.05
1023.258	2181.26
1023.548	2198.2
1023.839	2190.75
1024.129	2169.05
1024.419	2139.9
1024.709	2146.45
1025	2125.44
1025.29	2096.06
1025.58	2088.6
1025.87	2043.86
1026.16	2053.12
1026.449	2052.45
1026.739	2048.83
1027.029	2015.84
1027.319	2015.38
1027.608	2006.12
1027.898	1969.28
1028.187	1975.61
1028.477	1969.51
1028.766	1947.82
1029.055	1934.71
1029.344	1904.65
1029.634	1899.23
1029.923	1878.21
1030.212	1862.39
1030.501	1842.73
1030.79	1838.67
1031.078	1850.42
1031.367	1827.59
1031.656	1802.96
1031.945	1795.28
1032.233	1779.68
1032.522	1771.78
1032.81	1713.02
1033.099	1723.42
1033.387	1729.52
1033.675	1699.46
1033.963	1711.44
1034.251	1700.36
1034.54	1685
1034.828	1662.85
1035.116	1644.55
1035.403	1656.75
1035.691	1635.96
1035.979	1621.04
1036.267	1598.22
1036.554	1599.8
1036.842	1596.86
1037.129	1539.24
1037.417	1539.24
1037.704	1561.39
1037.992	1562.06
1038.279	1527.71
1038.566	1524.55
1038.853	1524.55
1039.14	1524.55
