Data from 214_FLMS001491_004.txt Node
Date: Thu Apr 19 16:36:44 BST 2018
User: hsy
Spectrometer: FLMS00149
Trigger mode: 0
Integration Time (sec): 1.000000E-2
Scans to average: 10
Electric dark correction enabled: true
Nonlinearity correction enabled: false
Boxcar width: 0
XAxis mode: Wavelengths
Number of Pixels in Spectrum: 2048
>>>>>Begin Spectral Data<<<<<
341.393	-8.63
341.776	-8.63
342.16	-8.63
342.543	-61.06
342.927	-77.55
343.31	-53.15
343.693	-72.58
344.077	-76.88
344.46	-43.43
344.843	-60.83
345.226	-59.48
345.61	-54.05
345.993	-12.92
346.376	12.61
346.759	12.84
347.142	25.49
347.525	49.22
347.908	47.41
348.291	84.93
348.674	89.67
349.057	111.14
349.44	131.48
349.823	132.84
350.206	180.29
350.588	236.11
350.971	236.11
351.354	260.06
351.737	284.92
352.119	290.12
352.502	300.06
352.884	309.1
353.267	336.45
353.65	337.58
354.032	343.9
354.414	340.51
354.797	365.6
355.179	368.08
355.562	370.8
355.944	372.15
356.326	372.83
356.709	393.62
357.091	390.91
357.473	406.05
357.855	374.86
358.238	384.13
358.62	406.05
359.002	376.9
359.384	396.33
359.766	377.35
360.148	390.23
360.53	394.07
360.912	365.15
361.294	363.79
361.676	395.88
362.057	385.26
362.439	363.11
362.821	367.63
363.203	386.16
363.584	372.38
363.966	375.77
364.348	355.65
364.729	374.19
365.111	379.16
365.493	376.9
365.874	370.57
366.256	394.98
366.637	360.4
367.019	376.67
367.4	360.17
367.781	395.65
368.163	376.9
368.544	386.84
368.925	370.8
369.306	392.04
369.688	361.98
370.069	368.08
370.45	378.25
370.831	375.54
371.212	370.12
371.593	368.99
371.974	371.47
372.355	394.75
372.736	385.94
373.117	397.01
373.498	378.7
373.879	389.78
374.26	392.04
374.641	392.04
375.021	380.51
375.402	399.04
375.783	387.52
376.163	407.86
376.544	411.25
376.925	386.61
377.305	413.73
377.686	396.33
378.066	392.04
378.447	416.9
378.827	405.37
379.208	409.21
379.588	443.79
379.968	421.19
380.349	428.65
380.729	413.51
381.109	421.19
381.489	451.92
381.87	441.98
382.25	441.98
382.63	434.52
383.01	424.81
383.39	434.3
383.77	429.78
384.15	434.97
384.53	448.76
384.91	453.05
385.29	442.21
385.67	444.01
386.049	444.92
386.429	439.04
386.809	433.62
387.189	481.53
387.568	436.78
387.948	479.04
388.328	464.8
388.707	471.13
389.087	488.31
389.466	487.85
389.846	470.91
390.225	475.2
390.605	492.83
390.984	470.91
391.363	501.87
391.743	494.63
392.122	503.45
392.501	507.06
392.881	513.62
393.26	510.68
393.639	509.1
394.018	510.23
394.397	528.53
394.776	531.7
395.155	547.51
395.534	520.4
395.913	538.02
396.292	535.54
396.671	538.47
397.05	544.35
397.429	543.22
397.808	538.02
398.186	552.26
398.565	563.33
398.944	572.37
399.323	557.01
399.701	576.44
400.08	574.18
400.458	577.34
400.837	583.45
401.215	571.92
401.594	556.55
401.972	599.72
402.351	599.26
402.729	598.36
403.107	592.26
403.486	601.07
403.864	602.2
404.242	613.5
404.62	620.05
404.999	608.98
405.377	632.48
405.755	643.33
406.133	672.26
406.511	667.51
406.889	655.31
407.267	656.44
407.645	675.65
408.023	679.94
408.401	693.05
408.779	711.58
409.156	702.31
409.534	698.47
409.912	737.34
410.29	722.88
410.667	729.88
411.045	748.86
411.422	735.31
411.8	777.56
412.178	773.72
412.555	791.12
412.933	796.55
413.31	787.06
413.687	794.29
414.065	812.59
414.442	797.9
414.819	818.47
415.197	844.23
415.574	865.7
415.951	837.68
416.328	846.04
416.705	863.89
417.082	860.05
417.46	877.22
417.837	884.68
418.214	870.22
418.591	906.15
418.967	901.18
419.344	900.27
419.721	923.32
420.098	911.12
420.475	914.51
420.852	936.88
421.228	960.16
421.605	964.9
421.982	965.13
422.358	968.07
422.735	953.38
423.111	949.54
423.488	982.3
423.864	1003.1
424.241	1009.2
424.617	1024.34
424.994	1043.32
425.37	1015.07
425.746	1019.37
426.123	1049.65
426.499	1061.17
426.875	1109.31
427.251	1099.59
427.627	1129.87
428.003	1123.77
428.379	1143.66
428.756	1173.26
429.132	1149.53
429.507	1166.03
429.883	1177.78
430.259	1170.55
430.635	1226.14
431.011	1251
431.387	1239.25
431.763	1252.35
432.138	1259.81
432.514	1273.37
432.89	1311.34
433.265	1317.21
433.641	1355.63
434.016	1348.4
434.392	1359.7
434.767	1373.25
435.143	1400.37
435.518	1396.98
435.894	1442.86
436.269	1430.2
436.644	1457.09
437.02	1470.88
437.395	1470.43
437.77	1496.42
438.145	1472.69
438.52	1518.56
438.895	1542.74
439.271	1541.39
439.646	1559.01
440.021	1580.26
440.395	1600.37
440.77	1585
441.145	1595.4
441.52	1641.72
441.895	1621.84
442.27	1641.27
442.645	1653.02
443.019	1663.42
443.394	1670.65
443.769	1669.52
444.143	1666.58
444.518	1688.27
444.892	1713.13
445.267	1696.41
445.641	1704.09
446.016	1721.72
446.39	1715.39
446.764	1760.82
447.139	1744.09
447.513	1762.85
447.887	1740.02
448.262	1763.3
448.636	1782.51
449.01	1821.83
449.384	1802.85
449.758	1828.16
450.132	1848.5
450.506	1877.87
450.88	1874.94
451.254	1888.04
451.628	1913.35
452.002	1903.18
452.376	1949.96
452.75	1958.55
453.123	1968.27
453.497	1965.78
453.871	1971.66
454.244	2013.24
454.618	2047.59
454.992	2078.55
455.365	2086.23
455.739	2158.32
456.112	2132.1
456.486	2171.2
456.859	2168.49
457.232	2236.06
457.606	2242.16
457.979	2248.71
458.352	2311.54
458.725	2326.45
459.099	2302.72
459.472	2309.05
459.845	2363.29
460.218	2381.36
460.591	2397.86
460.964	2403.28
461.337	2475.15
461.71	2530.74
462.083	2539.78
462.456	2535.48
462.829	2523.06
463.201	2601.47
463.574	2587.46
463.947	2612.09
464.32	2682.37
464.692	2686.21
465.065	2695.93
465.438	2713.33
465.81	2758.98
466.183	2740.22
466.555	2816.38
466.928	2861.35
467.3	2852.76
467.672	2894.34
468.045	2936.83
468.417	2962.82
468.789	2965.3
469.161	2954
469.534	3023.15
469.906	3078.07
470.278	3100.22
470.65	3106.32
471.022	3183.38
471.394	3233.77
471.766	3228.57
472.138	3296.37
472.51	3334.79
472.882	3349.47
473.253	3365.29
473.625	3389.7
473.997	3492.07
474.369	3487.55
474.74	3541.79
475.112	3585.4
475.484	3652.06
475.855	3680.31
476.227	3721.22
476.598	3793.3
476.97	3832.85
477.341	3956.69
477.713	3962.34
478.084	3993.07
478.455	4110.13
478.827	4077.36
479.198	4232.39
479.569	4185.16
479.94	4311.26
480.311	4426.28
480.682	4459.05
481.053	4516
481.424	4627.63
481.795	4678.7
482.166	4706.73
482.537	4747.86
482.908	4833.28
483.279	4905.59
483.65	4987.17
484.021	5063.78
484.391	5114.85
484.762	5209.76
485.133	5264.9
485.503	5301.74
485.874	5400.27
486.244	5454.28
486.615	5534.73
486.985	5617.44
487.356	5642.3
487.726	5760.03
488.097	5878.22
488.467	5880.71
488.837	5983.3
489.207	6057.43
489.578	6080.25
489.948	6223.75
490.318	6324.09
490.688	6341.26
491.058	6419.45
491.428	6502.61
491.798	6596.85
492.168	6678.88
492.538	6691.53
492.908	6811.08
493.278	6877.29
493.648	6856.73
494.017	6953.9
494.387	7032.32
494.757	7070.05
495.126	7138.75
495.496	7207.68
495.866	7257.17
496.235	7348.69
496.605	7352.08
496.974	7432.3
497.344	7487.22
497.713	7516.6
498.082	7573.77
498.452	7653.77
498.821	7705.97
499.19	7690.83
499.559	7741
499.928	7802.24
500.298	7902.8
500.667	7966.08
501.036	7937.6
501.405	7997.71
501.774	7995.23
502.143	8089.46
502.512	8114.32
502.88	8214.66
503.249	8155.45
503.618	8254.88
503.987	8243.58
504.356	8317.03
504.724	8387.53
505.093	8320.64
505.462	8350.92
505.83	8421.66
506.199	8460.53
506.567	8564.25
506.936	8597.02
507.304	8707.75
507.672	8709.11
508.041	8688.32
508.409	8767.41
508.777	8891.25
509.145	8930.34
509.514	8962.66
509.882	8947.97
510.25	8976.67
510.618	9033.17
510.986	9076.78
511.354	9114.52
511.722	9195.87
512.09	9267.28
512.458	9276.55
512.826	9361.07
513.193	9408.07
513.561	9419.6
513.929	9435.19
514.297	9587.05
514.664	9577.78
515.032	9637.9
515.4	9778.01
515.767	9772.36
516.135	9870.21
516.502	9814.61
516.869	9953.37
517.237	10041.73
517.604	10011.67
517.972	10180.03
518.339	10216.64
518.706	10276.52
519.073	10260.7
519.44	10300.93
519.808	10442.39
520.175	10482.39
520.542	10623.86
520.909	10649.17
521.276	10690.3
521.643	10890.07
522.009	10883.06
522.376	11024.07
522.743	11102.72
523.11	11236.72
523.477	11271.07
523.843	11379.55
524.21	11516.72
524.577	11637.39
524.943	11612.31
525.31	11692.76
525.676	11902.24
526.043	11984.28
526.409	12048.23
526.776	12197.38
527.142	12228.34
527.508	12266.75
527.874	12409.35
528.241	12450.25
528.607	12582.68
528.973	12729.57
529.339	12730.7
529.705	12956.68
530.071	12994.87
530.437	13055.89
530.803	13219.05
531.169	13219.5
531.535	13251.13
531.901	13412.03
532.267	13360.06
532.632	13574.29
532.998	13618.81
533.364	13730.67
533.73	13893.15
534.095	13926.6
534.461	14009.98
534.826	14065.8
535.192	14049.08
535.557	14216.08
535.923	14263.76
536.288	14402.52
536.653	14527.26
537.019	14503.98
537.384	14449.3
537.749	14533.81
538.114	14703.98
538.479	14586.24
538.845	14797.31
539.21	14737.88
539.575	14842.73
539.94	15033.01
540.305	15003.18
540.67	15080.47
541.034	15038.21
541.399	15122.05
541.764	15136.73
542.129	15282.49
542.494	15293.34
542.858	15300.57
543.223	15269.84
543.587	15459.21
543.952	15406.78
544.316	15596.61
544.681	15487.46
545.045	15685.87
545.41	15704.4
545.774	15627.57
546.138	15744.18
546.503	15778.3
546.867	15869.6
547.231	16026.43
547.595	16027.11
547.959	16069.14
548.324	16087.44
548.688	16232.53
549.052	16268.91
549.416	16250.6
549.779	16327.21
550.143	16404.05
550.507	16508.22
550.871	16502.12
551.235	16531.73
551.599	16765.39
551.962	16723.81
552.326	16724.72
552.689	16790.02
553.053	16751.61
553.417	16809.46
553.78	17024.37
554.143	17157.7
554.507	17156.12
554.87	17266.85
555.234	17397.01
555.597	17247.41
555.96	17522.21
556.323	17522.43
556.686	17528.99
557.05	17722.66
557.413	17747.06
557.776	17825.93
558.139	17978.47
558.502	18076.54
558.865	18133.04
559.228	18327.61
559.59	18354.05
559.953	18356.54
560.316	18618.45
560.679	18694.61
561.041	18766.92
561.404	18861.83
561.767	19115.84
562.129	19100.47
562.492	19270.64
562.854	19355.38
563.217	19465.21
563.579	19595.6
563.941	19710.85
564.304	20030.62
564.666	20255.92
565.028	20191.07
565.39	20239.65
565.753	20492.3
566.115	20565.97
566.477	20760.32
566.839	20861.33
567.201	21188.55
567.563	21308.1
567.925	21492.73
568.287	21581.76
568.648	21651.37
569.01	22012.71
569.372	22133.16
569.734	22332.25
570.095	22428.52
570.457	22587.39
570.819	22807.72
571.18	22953.7
571.542	23133.13
571.903	23146.47
572.265	23442.28
572.626	23662.39
572.987	23818.54
573.349	23948.71
573.71	24162.71
574.071	24218.53
574.432	24549.14
574.794	24686.31
575.155	24745.52
575.516	24902.13
575.877	25214.89
576.238	25167.88
576.599	25382.34
576.96	25524.26
577.32	25696.23
577.681	25896.68
578.042	26082.66
578.403	26150.46
578.763	26256.22
579.124	26415.31
579.485	26599.48
579.845	26962.86
580.206	26791.8
580.566	26949.08
580.927	27022.75
581.287	27323.98
581.648	27247.83
582.008	27631.1
582.368	27843.75
582.728	27968.49
583.089	28089.84
583.449	28328.93
583.809	28437.18
584.169	28725.08
584.529	28805.08
584.889	29278.28
585.249	29198.51
585.609	29359.41
585.969	29748.33
586.329	29993.97
586.688	30180.86
587.048	30614.97
587.408	30774.74
587.768	31007.96
588.127	31339.02
588.487	31648.39
588.846	32199.34
589.206	32223.29
589.565	32519.55
589.925	33079.99
590.284	33343.94
590.643	33788.9
591.003	34121.77
591.362	34769.21
591.721	35013.5
592.08	35513.15
592.44	35989.07
592.799	36269.96
593.158	36768.26
593.517	37057.97
593.876	37530.5
594.235	37847.78
594.593	38387.2
594.952	38916.9
595.311	39193.05
595.67	39756.43
596.029	40291.1
596.387	40737.19
596.746	41429.15
597.104	41593.44
597.463	41852.42
597.822	42661.89
598.18	42883.8
598.538	43394.97
598.897	44039.7
599.255	44102.3
599.613	44937.53
599.972	45155.83
600.33	45679.43
600.688	46003.49
601.046	46526.42
601.404	47106.29
601.762	47282.1
602.12	47884.8
602.478	48281.4
602.836	48567.27
603.194	48763.42
603.552	49202.28
603.91	49421.03
604.268	49864.41
604.625	50178.75
604.983	50670.26
605.341	50723.6
605.698	51230.25
606.056	51674.76
606.413	51638.15
606.771	52154.97
607.128	52369.43
607.485	52445.81
607.843	52803.54
608.2	53110.88
608.557	53372.57
608.914	53502.73
609.272	53802.61
609.629	54076.95
609.986	54259.32
610.343	54418.64
610.7	54772.3
611.057	54891.4
611.414	55000.55
611.771	55280.99
612.127	55476.24
612.484	55613.86
612.841	55798.94
613.198	55872.61
613.554	55921.2
613.911	56305.82
614.267	56458.13
614.624	56571.35
614.98	56705.59
615.337	56939.25
615.693	56988.06
616.05	57138.79
616.406	57254.95
616.762	57384.44
617.118	57438.9
617.475	57538.33
617.831	57667.37
618.187	57786.69
618.543	57933.35
618.899	58149.39
619.255	58190.07
619.611	58092.89
619.967	58416.73
620.323	58455.14
620.678	58457.86
621.034	58410.85
621.39	58523.84
621.746	58653.78
622.101	58925.41
622.457	58779.88
622.812	58910.5
623.168	58966.54
623.523	59053.55
623.879	59100.32
624.234	59064.62
624.589	59197.27
624.945	59201.34
625.3	59295.8
625.655	59319.75
626.01	59372.86
626.365	59444.5
626.72	59393.2
627.075	59402.69
627.43	59414.67
627.785	59486.76
628.14	59454.67
628.495	59526.98
628.85	59586.41
629.205	59508.68
629.559	59609.24
629.914	59526.08
630.269	59656.69
630.623	59505.51
630.978	59505.96
631.332	59682.46
631.687	59672.74
632.041	59597.26
632.396	59630.71
632.75	59628.67
633.104	59620.99
633.459	59541.22
633.813	59536.02
634.167	59531.73
634.521	59559.07
634.875	59585.96
635.229	59537.6
635.583	59494.66
635.937	59467.55
636.291	59421.67
636.645	59449.69
636.999	59333.09
637.352	59441.78
637.706	59319.98
638.06	59381
638.413	59311.84
638.767	59242.69
639.121	59313.43
639.474	59255.12
639.828	59233.88
640.181	59204.73
640.534	59300.55
640.888	59155.01
641.241	59027.78
641.594	59104.62
641.947	59141
642.301	59042.92
642.654	59160.89
643.007	59015.58
643.36	59065.52
643.713	58976.71
644.066	59074.11
644.419	58921.35
644.771	58661.92
645.124	58400.68
645.477	58400.91
645.83	58350.29
646.182	58370.85
646.535	58322.27
646.888	58354.58
647.24	58191.42
647.593	58387.12
647.945	58289.05
648.298	58181.03
648.65	58092.44
649.002	57949.62
649.355	57927.93
649.707	57819.23
650.059	57856.52
650.411	58189.16
650.763	58263.28
651.115	58649.49
651.467	58492.43
651.819	58565.2
652.171	58465.54
652.523	58473.45
652.875	58461.92
653.227	58354.13
653.578	58544.86
653.93	58437.97
654.282	58320.46
654.633	58308.03
654.985	58320.01
655.337	58401.13
655.688	58357.07
656.039	58353.9
656.391	58135.15
656.742	58234.58
657.094	58153.68
657.445	58320.68
657.796	58272.1
658.147	58170.86
658.498	58266.45
658.849	58240.23
659.2	58180.35
659.551	58142.84
659.902	58301.02
660.253	58199.78
660.604	58195.49
660.955	58156.62
661.306	58273.91
661.656	58193.46
662.007	58170.63
662.358	58170.86
662.708	58270.74
663.059	58281.36
663.409	58037.75
663.76	58178.09
664.11	58151.65
664.461	58185.32
664.811	58161.82
665.161	58104.19
665.511	58147.36
665.862	58134.25
666.212	58199.78
666.562	58218.54
666.912	58125.21
667.262	58120.92
667.612	58067.58
667.962	58108.03
668.312	58060.8
668.662	58214.02
669.011	58125.66
669.361	58127.24
669.711	58139.22
670.06	58048.37
670.41	58020.8
670.76	58000.92
671.109	58107.36
671.459	57968.83
671.808	58060.58
672.157	58082.5
672.507	57910.53
672.856	57933.58
673.205	58001.37
673.554	58031.65
673.904	57914.82
674.253	58052.22
674.602	57858.1
674.951	57574.04
675.3	57473.93
675.649	57975.61
675.998	57883.41
676.346	57981.48
676.695	57929.96
677.044	57783.07
677.393	57861.49
677.741	57864.42
678.09	57837.53
678.438	57729.29
678.787	57841.6
679.135	57779
679.484	57569.74
679.832	57734.71
680.181	57628.05
680.529	57666.01
680.877	57532
681.225	57595.05
681.573	57701.04
681.922	57565.9
682.27	57448.16
682.618	57459.92
682.966	57458.79
683.314	57474.83
683.661	57369.75
684.009	57281.84
684.357	57236.19
684.705	57157.1
685.053	57264.44
685.4	57103.31
685.748	56993.26
686.095	57007.72
686.443	56868.97
686.79	56902.87
687.138	56955.97
687.485	56892.47
687.832	56840.72
688.18	56778.8
688.527	56597.34
688.874	56649.09
689.221	56575.19
689.568	56482.31
689.915	56365.26
690.262	56535.87
690.609	56291.58
690.956	56254.98
691.303	56278.7
691.65	56182.44
691.997	56092.27
692.344	55966.85
692.69	55908.54
693.037	55958.03
693.383	55716.01
693.73	55893.86
694.077	55607.99
694.423	55664.71
694.769	55552.4
695.116	55451.83
695.462	55407.77
695.808	55303.14
696.155	55300.42
696.501	55124.16
696.847	55179.52
697.193	54970.26
697.539	55045.52
697.885	54791.96
698.231	54778.4
698.577	54750.83
698.923	54716.03
699.269	54450.96
699.614	54499.54
699.96	54290.28
700.306	54340.45
700.651	54180.91
700.997	54003.28
701.342	54070.4
701.688	53989.05
702.033	53817.75
702.379	53962.38
702.724	53707.92
703.069	53789.28
703.415	53359.01
703.76	53446.46
704.105	53475.16
704.45	53356.75
704.795	53294.38
705.14	53134.61
705.485	53118.11
705.83	52955.85
706.175	52972.35
706.52	52843.09
706.865	52803.54
707.209	52691.68
707.554	52708.85
707.899	52716.31
708.243	52598.12
708.588	52454.85
708.932	52273.84
709.277	52273.39
709.621	52182.54
709.966	52010.12
710.31	52133.95
710.654	51911.59
710.998	51929.67
711.342	51982.77
711.687	51721.76
712.031	51619.17
712.375	51518.15
712.719	51468.43
713.063	51374.2
713.407	51555.44
713.75	51313.18
714.094	51408.32
714.438	51213.75
714.782	51214.66
715.125	50885.17
715.469	51176.24
715.812	50824.61
716.156	50692.18
716.499	50811.95
716.843	50831.16
717.186	50712.75
717.53	50823.48
717.873	50680.66
718.216	50606.08
718.559	50364.51
718.902	50216.94
719.246	50190.5
719.589	50068.47
719.932	50078.41
720.275	50132.42
720.617	50091.07
720.96	50091.3
721.303	50053.33
721.646	49995.03
721.989	49820.79
722.331	49818.99
722.674	49697.63
723.016	49759.33
723.359	49627.35
723.701	49670.29
724.044	49442.5
724.386	49397.98
724.729	49577.41
725.071	49442.73
725.413	49332.22
725.755	49215.16
726.097	49091.55
726.439	49093.58
726.782	48942.4
727.124	49073.7
727.465	49016.07
727.807	48872.34
728.149	48844.55
728.491	48702.86
728.833	48868.5
729.175	48716.87
729.516	48499.02
729.858	48598
730.199	48717.09
730.541	48666.47
730.882	48284.11
731.224	48537.89
731.565	48423.32
731.906	48329.08
732.248	48325.47
732.589	48199.37
732.93	48108.52
733.271	48094.96
733.612	48067.17
733.953	48208.63
734.294	47957.57
734.635	47798.02
734.976	48144.68
735.317	47866.04
735.658	47915.31
735.999	47711.47
736.339	47773.16
736.68	47768.19
737.021	47824.01
737.361	47557.13
737.702	47694.97
738.042	47523.23
738.383	47510.12
738.723	47704.01
739.063	47451.14
739.404	47592.83
739.744	47336.79
740.084	47351.93
740.424	47283.01
740.764	47101.77
741.104	47351.93
741.444	47166.63
741.784	47030.36
742.124	47121.88
742.464	47027.42
742.804	46997.14
743.143	46835.34
743.483	46951.49
743.823	46757.6
744.162	46709.69
744.502	46859.97
744.841	46612.29
745.181	46794.43
745.52	46494.1
745.86	46699.07
746.199	46556.7
746.538	46586.76
746.877	46645.74
747.216	46522.58
747.556	46521.22
747.895	46447.1
748.234	46326.2
748.573	46260.66
748.911	46148.8
749.25	46122.36
749.589	45863.38
749.928	46080.33
750.267	46123.49
750.605	45876.04
750.944	45931.63
751.283	45802.82
751.621	45961.91
751.96	45537.74
752.298	45650.28
752.636	45627.68
752.975	45382.27
753.313	45320.57
753.651	45463.39
753.989	45226.57
754.327	45278.54
754.666	44968.72
755.004	45112.67
755.342	45059.56
755.679	44978.21
756.017	44698.44
756.355	44834.71
756.693	44632.23
757.031	44811.66
757.368	44445.79
757.706	44464.33
758.044	44342.52
758.381	44410.77
758.719	44237.44
759.056	44227.27
759.394	44035.86
759.731	43899.37
760.068	43700.05
760.405	43768.98
760.743	43670.67
761.08	43568.98
761.417	43351.13
761.754	43334.19
762.091	43247.18
762.428	43069.79
762.765	42893.29
763.102	42946.4
763.438	42715.67
763.775	42599.06
764.112	42661.43
764.449	42357.71
764.785	42250.6
765.122	42139.87
765.458	42007.21
765.795	42022.36
766.131	41827.33
766.467	41748.24
766.804	41348.47
767.14	41388.02
767.476	41254.92
767.812	41112.55
768.148	41231.19
768.485	41023.29
768.821	40675.95
769.157	40529.97
769.492	40517.08
769.828	40416.07
770.164	40209.07
770.5	40078
770.836	40114.61
771.171	39979.25
771.507	39656.77
771.842	39402.09
772.178	39478.92
772.513	39292.26
772.849	39200.73
773.184	39101.98
773.519	39031.7
773.855	38724.14
774.19	38704.25
774.525	38627.42
774.86	38511.49
775.195	38358.05
775.53	38026.3
775.865	37974.1
776.2	37668.35
776.535	37514.45
776.87	37521.91
777.205	37331.18
777.539	37286.43
777.874	37356.72
778.209	36834.02
778.543	36993.34
778.878	36603.51
779.212	36731.2
779.547	36403.29
779.881	36389.96
780.215	36166.69
780.55	36118.1
780.884	35908.17
781.218	35799.69
781.552	35807.6
781.886	35619.36
782.22	35454.84
782.554	35274.28
782.888	35088.07
783.222	35014.86
783.556	34854.86
783.889	34622.78
784.223	34427.53
784.557	34458.49
784.89	34513.4
785.224	34243.58
785.557	33917.94
785.891	34041.55
786.224	33951.16
786.558	33932.17
786.891	33644.72
787.224	33401.11
787.557	33467.33
787.891	33264.39
788.224	33090.84
788.557	33039.31
788.89	33152.76
789.223	32977.85
789.556	32707.57
789.888	32698.53
790.221	32493.11
790.554	32329.96
790.887	32293.12
791.219	32207.47
791.552	32046.57
791.884	32007.93
792.217	31923.86
792.549	31685.68
792.882	31518.45
793.214	31473.25
793.546	31471.9
793.879	31214.5
794.211	30998.69
794.543	31147.39
794.875	31120.95
795.207	31099.25
795.539	30795.08
795.871	30890.67
796.203	30553.5
796.535	30383.11
796.867	30379.5
797.198	30218.6
797.53	30198.49
797.862	29993.29
798.193	30135.44
798.525	29928.44
798.856	30033.74
799.188	29587.65
799.519	29453.19
799.85	29462.69
800.182	29488.67
800.513	29576.36
800.844	29113.09
801.175	29386.76
801.506	29148.34
801.837	29026.31
802.168	28964.85
802.499	28928.01
802.83	28792.87
803.161	28671.75
803.491	28604.4
803.822	28733.21
804.153	28569.38
804.483	28350.62
804.814	28072.89
805.145	28227.46
805.475	28168.03
805.805	28013.68
806.136	28131.2
806.466	27937.98
806.796	27872.22
807.126	27621.83
807.457	27686.24
807.787	27748.38
808.117	27586.58
808.447	27355.17
808.777	27512.23
809.107	27240.15
809.436	27180.71
809.766	27126.02
810.096	27172.12
810.426	26981.4
810.755	27022.3
811.085	26926.03
811.414	27006.71
811.744	26784.79
812.073	26607.39
812.403	26594.06
812.732	26496.66
813.061	26626.38
813.39	26467.74
813.719	26238.59
814.049	26509.32
814.378	26319.04
814.707	26267.52
815.036	26187.52
815.365	25998.6
815.693	25899.84
816.022	25898.03
816.351	25729.9
816.68	25589.57
817.008	25733.52
817.337	25382.34
817.665	25424.15
817.994	25529.23
818.322	25577.59
818.651	25369.91
818.979	25355.68
819.307	25402.91
819.636	25159.3
819.964	25178.05
820.292	25233.87
820.62	25158.62
820.948	25182.8
821.276	25239.75
821.604	25134.89
821.932	25240.65
822.259	25152.97
822.587	25186.41
822.915	25032.07
823.243	25084.5
823.57	25004.95
823.898	25165.85
824.225	24912.52
824.553	24963.14
824.88	25128.56
825.207	25206.3
825.535	25062.58
825.862	25088.79
826.189	24989.81
826.516	25237.71
826.843	25153.42
827.17	25188.22
827.497	25106.42
827.824	25213.31
828.151	25207.43
828.478	25127.66
828.805	25338.5
829.131	25145.29
829.458	25155.23
829.785	25020.09
830.111	25025.74
830.438	25093.54
830.764	25090.82
831.09	25144.83
831.417	25005.85
831.743	25184.83
832.069	25097.15
832.395	24988.45
832.722	24988.91
833.048	24925.18
833.374	24903.48
833.7	24869.36
834.026	25060.32
834.351	24930.6
834.677	24971.05
835.003	24889.7
835.329	24862.58
835.654	24793.2
835.98	24672.98
836.306	24901
836.631	24645.86
836.956	24914.1
837.282	24837.27
837.607	24651.06
837.932	24570.16
838.258	24565.19
838.583	24581.23
838.908	24470.95
839.233	24561.57
839.558	24374.91
839.883	24409.71
840.208	24256.95
840.533	24291.07
840.858	24305.31
841.182	24326.78
841.507	24206.55
841.832	24150.96
842.156	24148.93
842.481	24082.49
842.805	23947.35
843.13	23903.06
843.454	23940.35
843.778	23847.24
844.103	23769.28
844.427	23733.8
844.751	23796.85
845.075	23667.81
845.399	23621.26
845.723	23531.54
846.047	23576.74
846.371	23327.93
846.695	23294.71
847.019	23158.67
847.343	22991.22
847.666	23011.33
847.99	22864.67
848.313	22755.52
848.637	22819.92
848.96	22755.97
849.284	22686.37
849.607	22534.05
849.931	22511.46
850.254	22383.78
850.577	22173.84
850.9	22159.37
851.223	22107.62
851.546	21974.75
851.869	21744.02
852.192	21981.75
852.515	21658.82
852.838	21619.5
853.161	21642.33
853.483	21428.77
853.806	21442.78
854.129	21427.42
854.451	21225.84
854.774	21178.38
855.096	21218.83
855.419	21019.97
855.741	20934.55
856.063	20842.35
856.385	20940.2
856.708	20762.35
857.03	20677.15
857.352	20741.11
857.674	20627.44
857.996	20573.65
858.318	20354.45
858.64	20381.79
858.961	20345.86
859.283	20248.46
859.605	20209.82
859.926	20334.79
860.248	20138.41
860.57	19977.96
860.891	20033.56
861.212	19990.84
861.534	19937.29
861.855	19869.04
862.176	19874.24
862.498	19863.39
862.819	19928.47
863.14	19715.37
863.461	19710.17
863.782	19721.7
864.103	19669.5
864.424	19572.78
864.745	19659.55
865.065	19495.72
865.386	19293.91
865.707	19554.7
866.027	19433.8
866.348	19416.4
866.668	19457.07
866.989	19302.95
867.309	19166.01
867.63	19215.05
867.95	19339.11
868.27	19177.31
868.59	19187.48
868.91	19077.65
869.23	19044.65
869.55	18942.28
869.87	18985.67
870.19	18954.04
870.51	18961.49
870.83	18947.71
871.15	18860.48
871.469	18801.05
871.789	18850.08
872.109	18815.28
872.428	18632.01
872.748	18765.34
873.067	18658.68
873.386	18739.13
873.706	18672.69
874.025	18538.68
874.344	18453.48
874.663	18460.49
874.982	18468.85
875.301	18452.58
875.62	18345.46
875.939	18305.92
876.258	18383.66
876.577	18268.4
876.896	18206.03
877.214	18194.73
877.533	18279.25
877.852	18237.44
878.17	18209.87
878.489	18219.37
878.807	18055.75
879.125	18086.94
879.444	18034.96
879.762	18025.25
880.08	18149.08
880.398	18035.87
880.716	17926.04
881.034	17985.93
881.352	17878.13
881.67	17757.23
881.988	17839.94
882.306	17662.54
882.624	17774.86
882.941	17597.24
883.259	17656.44
883.577	17578.25
883.894	17525.6
884.212	17530.12
884.529	17463.68
884.846	17359.05
885.164	17203.12
885.481	17298.49
885.798	17403.12
886.115	17183.01
886.432	17278.37
886.75	17197.7
887.067	17224.36
887.383	17106.17
887.7	17015.56
888.017	16926.29
888.334	16979.17
888.651	16996.12
888.967	16885.62
889.284	16777.6
889.6	16758.61
889.917	16691.27
890.233	16671.16
890.55	16661.89
890.866	16687.43
891.182	16611.05
891.498	16498.96
891.815	16456.47
892.131	16368.34
892.447	16407.21
892.763	16376.48
893.079	16334.44
893.395	16284.73
893.71	16283.37
894.026	16219.19
894.342	16146.2
894.657	16008.8
894.973	16004.51
895.289	15928.8
895.604	15838.41
895.92	15840.67
896.235	15736.72
896.55	15760.45
896.865	15722.26
897.181	15633.9
897.496	15668.02
897.811	15576.5
898.126	15496.73
898.441	15468.93
898.756	15458.31
899.071	15373.79
899.386	15285.21
899.7	15250.86
900.015	15067.81
900.33	15061.93
900.644	15000.47
900.959	15038.43
901.273	14997.08
901.588	14934.25
901.902	14814.26
902.216	14834.6
902.531	14723.86
902.845	14658.1
903.159	14509.63
903.473	14572.23
903.787	14503.31
904.101	14469.18
904.415	14450.65
904.729	14357.09
905.042	14321.84
905.356	14260.83
905.67	14194.39
905.984	14249.3
906.297	14171.34
906.611	14041.85
906.924	14009.76
907.237	13983.09
907.551	13971.79
907.864	13873.72
908.177	13847.73
908.491	13742.87
908.804	13638.7
909.117	13644.34
909.43	13460.85
909.743	13474.86
910.056	13517.12
910.368	13407.51
910.681	13393.96
910.994	13337.46
911.307	13205.71
911.619	13061.76
911.932	13190.8
912.244	13028.54
912.557	13036.68
912.869	12915.78
913.181	12943.12
913.494	12886.4
913.806	12802.11
914.118	12748.55
914.43	12732.05
914.742	12690.02
915.054	12603.92
915.366	12472.4
915.678	12424.26
915.99	12517.37
916.302	12300.43
916.613	12283.93
916.925	12326.87
917.236	12329.35
917.548	12130.94
917.859	12200.31
918.171	12193.54
918.482	12006.65
918.794	11991.05
919.105	11971.85
919.416	11884.39
919.727	11875.8
920.038	11833.54
920.349	11759.65
920.66	11718.52
920.971	11714
921.282	11672.87
921.593	11458.41
921.903	11466.55
922.214	11497.51
922.525	11321.92
922.835	11296.38
923.146	11282.37
923.456	11192.88
923.767	11220
924.077	11113.11
924.387	11177.97
924.697	11092.32
925.008	11070.85
925.318	10979.33
925.628	10976.17
925.938	10944.75
926.248	10780.24
926.558	10704.99
926.867	10702.73
927.177	10632.67
927.487	10636.29
927.796	10515.39
928.106	10618.66
928.416	10530.3
928.725	10540.7
929.034	10472.22
929.344	10431.1
929.653	10373.92
929.962	10305.45
930.271	10234.72
930.581	10268.84
930.89	10143.42
931.199	10060.94
931.508	10048.51
931.817	10037.66
932.125	10036.76
932.434	9915.4
932.743	9867.95
933.051	9830.66
933.36	9788.85
933.669	9718.12
933.977	9701.4
934.286	9698.46
934.594	9668.86
934.902	9613.04
935.21	9617.33
935.519	9505.92
935.827	9483.32
936.135	9389.54
936.443	9307.96
936.751	9322.88
937.059	9323.1
937.367	9272.03
937.674	9282.43
937.982	9187.51
938.29	9172.15
938.597	9233.84
938.905	9056.44
939.213	9019.83
939.52	8986.84
939.827	8986.16
940.135	8908.88
940.442	8871.59
940.749	8788.65
941.056	8804.47
941.363	8726.28
941.67	8721.99
941.977	8689.45
942.284	8593.63
942.591	8676.57
942.898	8582.56
943.205	8554.99
943.511	8487.19
943.818	8511.6
944.125	8420.98
944.431	8351.83
944.738	8336.69
945.044	8308.67
945.35	8161.55
945.657	8223.24
945.963	8232.74
946.269	8195.45
946.575	8113.64
946.881	8123.59
947.187	8033.87
947.493	8042.01
947.799	7954.78
948.105	7976.25
948.41	7877.72
948.716	7880.88
949.022	7846.08
949.327	7833.88
949.633	7678.4
949.938	7743.03
950.244	7727.44
950.549	7644.28
950.854	7641.34
951.16	7547.78
951.465	7527.22
951.77	7468.69
952.075	7480.21
952.38	7474.79
952.685	7431.4
952.99	7369.93
953.294	7372.42
953.599	7309.6
953.904	7284.74
954.209	7183.5
954.513	7210.16
954.818	7190.73
955.122	7199.32
955.426	7129.26
955.731	7068.02
956.035	7037.74
956.339	7052.2
956.643	6962.71
956.948	6939.44
957.252	6903.28
957.556	6956.84
957.86	6877.06
958.163	6848.37
958.467	6786.45
958.771	6860.79
959.075	6749.84
959.378	6716.17
959.682	6679.78
959.985	6581.03
960.289	6626.68
960.592	6597.75
960.896	6559.11
961.199	6534.7
961.502	6523.85
961.805	6481.82
962.108	6424.87
962.411	6386.23
962.714	6341.94
963.017	6361.82
963.32	6326.34
963.623	6347.81
963.926	6321.6
964.228	6284.31
964.531	6238.66
964.833	6241.6
965.136	6173.58
965.438	6130.64
965.741	6135.16
966.043	6084.32
966.345	6046.8
966.648	6048.16
966.95	6058.33
967.252	5959.12
967.554	5982.63
967.856	5965
968.158	5869.18
968.46	5882.97
968.761	5887.49
969.063	5853.82
969.365	5793.25
969.666	5751.67
969.968	5797.77
970.269	5711.67
970.571	5718.9
970.872	5700.82
971.174	5667.15
971.475	5653.37
971.776	5576.08
972.077	5568.4
972.378	5547.83
972.679	5568.62
972.98	5491.79
973.281	5449.31
973.582	5487.72
973.883	5426.03
974.183	5393.04
974.484	5381.96
974.785	5329.76
975.085	5348.52
975.386	5346.71
975.686	5266.94
975.986	5274.4
976.287	5224.68
976.587	5153.04
976.887	5162.31
977.187	5149.65
977.487	5186.26
977.787	5038.92
978.087	5056.77
978.387	5087.96
978.687	5034.4
978.987	5031.69
979.286	4993.27
979.586	4953.05
979.885	4978.58
980.185	4914.86
980.484	4873.95
980.784	4875.31
981.083	4805.93
981.382	4834.86
981.682	4832.82
981.981	4814.07
982.28	4764.35
982.579	4717.8
982.878	4741.3
983.177	4703.79
983.475	4696.56
983.774	4604.81
984.073	4623.11
984.372	4612.94
984.67	4612.27
984.969	4560.74
985.267	4556.9
985.566	4501.08
985.864	4484.81
986.162	4501.76
986.461	4492.04
986.759	4476.22
987.057	4412.27
987.355	4374.98
987.653	4356.23
987.951	4372.72
988.249	4371.14
988.547	4327.75
988.844	4314.19
989.142	4322.1
989.44	4287.53
989.737	4237.81
990.035	4193.07
990.332	4199.4
990.63	4188.77
990.927	4140.64
991.224	4137.7
991.521	4126.63
991.819	4110.81
992.116	4067.87
992.413	4061.09
992.71	4018.61
993.006	4049.79
993.303	3990.14
993.6	3997.37
993.897	3974.77
994.193	3982.68
994.49	3907.2
994.787	3918.95
995.083	3892.96
995.379	3863.36
995.676	3833.98
995.972	3838.27
996.268	3821.55
996.565	3794.21
996.861	3733.42
997.157	3746.75
997.453	3751.95
997.749	3691.16
998.044	3658.62
998.34	3680.99
998.636	3678.5
998.932	3637.15
999.227	3612.29
999.523	3583.37
999.818	3549.02
1000.114	3573.42
1000.409	3499.75
1000.704	3492.75
1001	3437.16
1001.295	3432.64
1001.59	3469.24
1001.885	3485.29
1002.18	3403.94
1002.475	3402.13
1002.77	3367.55
1003.065	3343.82
1003.359	3343.82
1003.654	3285.29
1003.949	3281.23
1004.243	3289.81
1004.538	3246.65
1004.832	3239.87
1005.127	3215.92
1005.421	3204.85
1005.715	3180.21
1006.009	3206.2
1006.304	3148.58
1006.598	3110.61
1006.892	3111.06
1007.186	3089.59
1007.48	3083.27
1007.773	3117.16
1008.067	3053.21
1008.361	3035.81
1008.655	2972.08
1008.948	3000.56
1009.242	2973.44
1009.535	2947
1009.829	2926.21
1010.122	2901.8
1010.415	2913.33
1010.708	2853.67
1011.001	2860
1011.295	2858.19
1011.588	2826.1
1011.881	2841.92
1012.173	2796.49
1012.466	2782.71
1012.759	2760.11
1013.052	2741.35
1013.344	2743.84
1013.637	2717.63
1013.93	2667.91
1014.222	2673.33
1014.514	2627.69
1014.807	2645.99
1015.099	2610.28
1015.391	2610.51
1015.683	2642.83
1015.976	2550.4
1016.268	2549.95
1016.56	2516.95
1016.851	2519.21
1017.143	2525.99
1017.435	2501.59
1017.727	2474.69
1018.018	2434.02
1018.31	2414.58
1018.602	2428.37
1018.893	2425.43
1019.185	2378.43
1019.476	2389.27
1019.767	2318.77
1020.058	2367.13
1020.35	2298.2
1020.641	2274.93
1020.932	2317.41
1021.223	2265.21
1021.514	2248.03
1021.804	2237.41
1022.095	2211.65
1022.386	2208.71
1022.677	2182.73
1022.967	2179.79
1023.258	2155.16
1023.548	2144.31
1023.839	2137.98
1024.129	2145.89
1024.419	2101.15
1024.709	2077.19
1025	2067.7
1025.29	2014.59
1025.58	2060.69
1025.87	2050.98
1026.16	2038.1
1026.449	1987.93
1026.739	1989.96
1027.029	1964.43
1027.319	1939.57
1027.608	1935.95
1027.898	1917.2
1028.187	1892.56
1028.477	1888.72
1028.766	1908.83
1029.055	1850.08
1029.344	1885.56
1029.634	1847.59
1029.923	1809.85
1030.212	1813.7
1030.501	1812.79
1030.79	1791.55
1031.078	1768.05
1031.367	1782.28
1031.656	1756.3
1031.945	1749.52
1032.233	1736.64
1032.522	1740.25
1032.81	1717.2
1033.099	1691.44
1033.387	1715.84
1033.675	1663.87
1033.963	1664.09
1034.251	1636.98
1034.54	1639.91
1034.828	1636.07
1035.116	1589.97
1035.403	1604.21
1035.691	1590.2
1035.979	1594.04
1036.267	1573.93
1036.554	1553.14
1036.842	1558.11
1037.129	1520.82
1037.417	1536.87
1037.704	1517.66
1037.992	1512.01
1038.279	1488.05
1038.566	1484.44
1038.853	1484.44
1039.14	1484.44
