Data from 214_FLMS001491_006.txt Node
Date: Thu Apr 19 16:36:48 BST 2018
User: hsy
Spectrometer: FLMS00149
Trigger mode: 0
Integration Time (sec): 1.000000E-2
Scans to average: 10
Electric dark correction enabled: true
Nonlinearity correction enabled: false
Boxcar width: 0
XAxis mode: Wavelengths
Number of Pixels in Spectrum: 2048
>>>>>Begin Spectral Data<<<<<
341.393	0.9
341.776	0.9
342.16	0.9
342.543	-64.86
342.927	-57.4
343.31	-81.81
343.693	-56.72
344.077	-85.42
344.46	-57.17
344.843	-47.23
345.226	-45.42
345.61	-31.19
345.993	-19.66
346.376	-28.25
346.759	-6.33
347.142	45.65
347.525	65.99
347.908	42.71
348.291	67.12
348.674	111.64
349.057	126.1
349.44	146.89
349.823	135.82
350.206	166.78
350.588	207.68
350.971	236.15
351.354	256.04
351.737	287
352.119	295.59
352.502	298.75
352.884	312.08
353.267	318.64
353.65	322.48
354.032	343.27
354.414	362.48
354.797	365.64
355.179	372.42
355.562	354.11
355.944	359.99
356.326	378.07
356.709	386.66
357.091	376.49
357.473	379.43
357.855	399.31
358.238	374
358.62	385.53
359.002	392.53
359.384	372.87
359.766	391.63
360.148	378.52
360.53	362.7
360.912	377.17
361.294	398.86
361.676	393.66
362.057	368.13
362.439	405.41
362.821	386.43
363.203	366.32
363.584	371.74
363.966	375.81
364.348	381.23
364.729	389.37
365.111	369.71
365.493	351.4
365.874	373.78
366.256	383.72
366.637	378.52
367.019	358.18
367.4	361.12
367.781	348.24
368.163	369.48
368.544	357.96
368.925	375.81
369.306	356.6
369.688	376.04
370.069	364.51
370.45	354.79
370.831	363.61
371.212	374.68
371.593	366.54
371.974	349.14
372.355	376.71
372.736	371.06
373.117	370.16
373.498	373.55
373.879	385.53
374.26	368.58
374.641	381.46
375.021	372.42
375.402	380.33
375.783	397.28
376.163	423.94
376.544	388.24
376.925	424.4
377.305	399.54
377.686	416.49
378.066	386.43
378.447	403.15
378.827	415.81
379.208	387.56
379.588	435.92
379.968	404.96
380.349	422.59
380.729	405.64
381.109	416.71
381.489	393.44
381.87	418.52
382.25	414.45
382.63	425.07
383.01	440.44
383.39	433.89
383.77	458.75
384.15	451.51
384.53	430.27
384.91	441.34
385.29	470.5
385.67	453.32
386.049	445.41
386.429	452.42
386.809	482.7
387.189	465.75
387.568	453.1
387.948	469.82
388.328	473.66
388.707	467.11
389.087	506.2
389.466	461.46
389.846	478.41
390.225	486.09
390.605	479.54
390.984	497.61
391.363	500.1
391.743	516.6
392.122	497.39
392.501	515.47
392.881	498.07
393.26	501.46
393.639	533.77
394.018	532.87
394.397	516.14
394.776	503.49
395.155	510.72
395.534	514.34
395.913	516.37
396.292	555.69
396.671	550.27
397.05	538.29
397.429	548.01
397.808	572.19
398.186	551.85
398.565	543.94
398.944	559.08
399.323	558.86
399.701	584.84
400.08	557.27
400.458	576.48
400.837	580.78
401.215	575.8
401.594	590.72
401.972	595.01
402.351	605.18
402.729	609.48
403.107	602.47
403.486	595.69
403.864	621
404.242	618.06
404.62	628.01
404.999	604.05
405.377	638.4
405.755	614.67
406.133	646.54
406.511	655.35
406.889	652.19
407.267	695.57
407.645	681.79
408.023	684.05
408.401	653.09
408.779	676.59
409.156	697.38
409.534	725.4
409.912	706.65
410.29	750.04
410.667	751.62
411.045	750.49
411.422	760.88
411.8	767.89
412.178	760.88
412.555	766.76
412.933	793.43
413.31	782.58
413.687	817.15
414.065	770.38
414.442	813.54
414.819	816.02
415.197	823.93
415.574	862.58
415.951	824.61
416.328	849.47
416.705	863.71
417.082	859.86
417.46	880.65
417.837	889.47
418.214	889.69
418.591	902.35
418.967	888.11
419.344	926.08
419.721	923.37
420.098	945.51
420.475	942.8
420.852	955.46
421.228	946.19
421.605	959.97
421.982	933.08
422.358	991.16
422.735	973.76
423.111	995
423.488	988.67
423.864	1019.41
424.241	1037.26
424.617	1056.92
424.994	1041.55
425.37	1031.84
425.746	1033.19
426.123	1101.89
426.499	1074.77
426.875	1060.76
427.251	1077.03
427.627	1155
428.003	1116.13
428.379	1148.44
428.756	1116.35
429.132	1154.77
429.507	1178.5
429.883	1188.22
430.259	1225.05
430.635	1219.63
431.011	1216.92
431.387	1255.56
431.763	1258.05
432.138	1300.76
432.514	1306.86
432.89	1287.65
433.265	1331.94
433.641	1354.54
434.016	1334.43
434.392	1367.87
434.767	1402
435.143	1377.14
435.518	1400.19
435.894	1435.22
436.269	1457.36
436.644	1458.49
437.02	1501.2
437.395	1493.97
437.77	1502.56
438.145	1519.96
438.52	1545.04
438.895	1549.79
439.271	1529.68
439.646	1570.81
440.021	1609
440.395	1624.14
440.77	1584.82
441.145	1601.99
441.52	1604.03
441.895	1616.91
442.27	1643.57
442.645	1654.42
443.019	1664.14
443.394	1658.94
443.769	1669.33
444.143	1680.18
444.518	1680.18
444.892	1711.14
445.267	1746.39
445.641	1719.73
446.016	1747.98
446.39	1751.14
446.764	1762.67
447.139	1748.43
447.513	1776.9
447.887	1755.43
448.262	1779.84
448.636	1808.31
449.01	1835.43
449.384	1826.17
449.758	1834.3
450.132	1875.66
450.506	1851.25
450.88	1912.04
451.254	1866.39
451.628	1936.22
452.002	1933.06
452.376	1919.72
452.75	1947.52
453.123	1987.97
453.497	2006.95
453.871	2025.94
454.244	2075.65
454.618	2040.4
454.992	2112.49
455.365	2090.34
455.739	2180.28
456.112	2143.67
456.486	2189.55
456.859	2163.78
457.232	2261.18
457.606	2224.8
457.979	2278.58
458.352	2299.6
458.725	2332.37
459.099	2357.45
459.472	2350.45
459.845	2414.4
460.218	2413.27
460.591	2454.62
460.964	2507.96
461.337	2487.84
461.71	2496.66
462.083	2528.97
462.456	2556.32
462.829	2545.02
463.201	2625.69
463.574	2620.72
463.947	2653.26
464.32	2672.92
464.692	2682.19
465.065	2748.18
465.438	2751.57
465.81	2768.74
466.183	2781.85
466.555	2827.04
466.928	2856.42
467.3	2854.39
467.672	2885.12
468.045	2952.46
468.417	2980.94
468.789	2977.77
469.161	2981.16
469.534	3034.95
469.906	3104.1
470.278	3110.2
470.65	3132.8
471.022	3199.01
471.394	3231.55
471.766	3240.37
472.138	3311.33
472.51	3370.98
472.882	3370.76
473.253	3436.75
473.625	3478.33
473.997	3525.11
474.369	3520.59
474.74	3594.03
475.112	3603.07
475.484	3670.19
475.855	3725.78
476.227	3760.13
476.598	3854.36
476.97	3883.29
477.341	3936.39
477.713	3973.91
478.084	4032.21
478.455	4084.64
478.827	4096.39
479.198	4231.3
479.569	4274.01
479.94	4352.88
480.311	4382.48
480.682	4485.98
481.053	4565.98
481.424	4659.09
481.795	4676.26
482.166	4783.38
482.537	4750.38
482.908	4885.75
483.279	4925.75
483.65	4984.28
484.021	5123.71
484.391	5173.88
484.762	5208.68
485.133	5280.54
485.503	5285.28
485.874	5440.53
486.244	5465.39
486.615	5579.97
486.985	5628.78
487.356	5752.84
487.726	5787.42
488.097	5884.37
488.467	5935.89
488.837	5986.74
489.207	6111.25
489.578	6158.48
489.948	6283.22
490.318	6292.26
490.688	6364.13
491.058	6374.3
491.428	6541.3
491.798	6602.09
492.168	6658.13
492.538	6768.64
492.908	6864.68
493.278	6915.98
493.648	6874.17
494.017	6964.34
494.387	7030.32
494.757	7071.9
495.126	7170.21
495.496	7193.03
495.866	7256.76
496.235	7308.51
496.605	7442.06
496.974	7442.06
497.344	7537.88
497.713	7563.42
498.082	7550.08
498.452	7606.81
498.821	7715.05
499.19	7755.05
499.559	7767.48
499.928	7827.36
500.298	7894.03
500.667	7912.11
501.036	7987.59
501.405	8023.97
501.774	8022.61
502.143	8095.38
502.512	8058.09
502.88	8114.36
503.249	8162.72
503.618	8251.08
503.987	8260.12
504.356	8317.52
504.724	8340.12
505.093	8364.07
505.462	8431.64
505.83	8479.1
506.199	8475.71
506.567	8569.04
506.936	8555.93
507.304	8662.6
507.672	8677.06
508.041	8658.08
508.409	8785.08
508.777	8893.78
509.145	8956.83
509.514	8878.18
509.882	8978.07
510.25	8950.5
510.618	9127.67
510.986	9070.5
511.354	9146.43
511.722	9239.08
512.09	9239.76
512.458	9270.94
512.826	9315.01
513.193	9484.95
513.561	9436.81
513.929	9474.78
514.297	9565.4
514.664	9635
515.032	9676.58
515.4	9723.81
515.767	9772.4
516.135	9817.14
516.502	9735.34
516.869	9925.39
517.237	9967.2
517.604	9907.99
517.972	10065.95
518.339	10174.2
518.706	10182.78
519.073	10188.43
519.44	10243.57
519.808	10421.19
520.175	10482.66
520.542	10546.84
520.909	10653.73
521.276	10674.3
521.643	10792.48
522.009	10880.84
522.376	11021.18
522.743	11006.94
523.11	11164.68
523.477	11286.26
523.843	11293.26
524.21	11409.42
524.577	11536.19
524.943	11543.43
525.31	11714.95
525.676	11789.07
526.043	11865
526.409	11907.94
526.776	12121.26
527.142	12121.72
527.508	12227.7
527.874	12389.5
528.241	12489.16
528.607	12503.63
528.973	12646.22
529.339	12644.19
529.705	12838.31
530.071	12961.69
530.437	13012.31
530.803	13092.76
531.169	13202.36
531.535	13130.28
531.901	13257.28
532.267	13346.32
532.632	13516.48
532.998	13622.01
533.364	13689.58
533.73	13681.67
534.095	13774.33
534.461	13902.01
534.826	13977.49
535.192	14059.29
535.557	14167.99
535.923	14142.68
536.288	14247.76
536.653	14346.52
537.019	14266.29
537.384	14393.75
537.749	14497.47
538.114	14469.68
538.479	14520.97
538.845	14634.64
539.21	14645.72
539.575	14809.1
539.94	14802.77
540.305	14892.04
540.67	14936.78
541.034	15017.91
541.399	15044.35
541.764	15059.27
542.129	15082.54
542.494	15175.19
542.858	15269.43
543.223	15244.12
543.587	15322.76
543.952	15405.47
544.316	15401.63
544.681	15466.71
545.045	15573.6
545.41	15641.62
545.774	15611.79
546.138	15572.92
546.503	15738.12
546.867	15795.97
547.231	15785.12
547.595	15830.32
547.959	15920.94
548.324	15945.8
548.688	15995.74
549.052	16128.39
549.416	16102.18
549.779	16130.2
550.143	16260.36
550.507	16287.71
550.871	16380.59
551.235	16408.38
551.599	16519.11
551.962	16584.87
552.326	16570.64
552.689	16661.93
553.053	16609.73
553.417	16709.17
553.78	16861.48
554.143	16896.96
554.507	16995.03
554.87	17095.82
555.234	17266.21
555.597	17127.23
555.96	17222.82
556.323	17405.87
556.686	17354.57
557.05	17581.01
557.413	17649.25
557.776	17663.04
558.139	17736.93
558.502	17864.16
558.865	17966.99
559.228	18122.69
559.59	18140.99
559.953	18283.81
560.316	18478.16
560.679	18421.21
561.041	18631.37
561.404	18782.11
561.767	18822.78
562.129	18773.07
562.492	19041.53
562.854	19212.38
563.217	19211.7
563.579	19408.08
563.941	19542.54
564.304	19649.2
564.666	19946.59
565.028	19932.36
565.39	20015.52
565.753	20243.76
566.115	20359.24
566.477	20555.62
566.839	20664.09
567.201	20874.71
567.563	20920.35
567.925	21144.75
568.287	21290.97
568.648	21457.06
569.01	21674.01
569.372	21877.16
569.734	21889.37
570.095	22241.45
570.457	22424.27
570.819	22376.36
571.18	22652.29
571.542	22897.48
571.903	22907.65
572.265	23281.65
572.626	23331.14
572.987	23445.49
573.349	23675.54
573.71	23893.38
574.071	24057.9
574.432	24192.36
574.794	24412.92
575.155	24525.68
575.516	24626.25
575.877	24780.14
576.238	24858.1
576.599	25149.4
576.96	25150.98
577.32	25325.44
577.681	25420.57
578.042	25784.41
578.403	25750.06
578.763	25968.81
579.124	25951.86
579.485	26308.01
579.845	26429.36
580.206	26479.98
580.566	26712.29
580.927	26703.03
581.287	26932.85
581.648	26952.51
582.008	27269.79
582.368	27388.43
582.728	27572.38
583.089	27760.17
583.449	27924.69
583.809	28137.34
584.169	28330.78
584.529	28284.23
584.889	28978.45
585.249	28931.67
585.609	28988.16
585.969	29409.17
586.329	29475.16
586.688	29940.91
587.048	30142.71
587.408	30511.97
587.768	30716.48
588.127	31161.44
588.487	31405.05
588.846	31952.83
589.206	31983.34
589.565	32329.32
589.925	33032.35
590.284	33061.73
590.643	33584.43
591.003	34046.11
591.362	34604.06
591.721	34857.84
592.08	35242.24
592.44	35856.01
592.799	36119.73
593.158	36489.66
593.517	37020.72
593.876	37611.67
594.235	37772.34
594.593	38362.83
594.952	38819.32
595.311	39228.8
595.67	39700.65
596.029	40263.8
596.387	40824.69
596.746	41364.11
597.104	41572.01
597.463	41991.21
597.822	42570.86
598.18	42895.6
598.538	43363.38
598.897	43934.21
599.255	44180.76
599.613	45135.31
599.972	45242.88
600.33	45736.65
600.688	46074.72
601.046	46604.42
601.404	47090.74
601.762	47476.72
602.12	47972.52
602.478	48226.3
602.836	48746.74
603.194	48822.9
603.552	49330.68
603.91	49468.08
604.268	49930.89
604.625	50161.62
604.983	50702.17
605.341	50612.45
605.698	51238.43
606.056	51642.26
606.413	51724.29
606.771	52117.73
607.128	52403.37
607.485	52497.38
607.843	52721.1
608.2	53175.78
608.557	53463.68
608.914	53605.14
609.272	53888.3
609.629	54282.87
609.986	54445.12
610.343	54509.53
610.7	54898.9
611.057	54978.67
611.414	55087.59
611.771	55393.35
612.127	55620.01
612.484	55771.41
612.841	55938.19
613.198	56017.51
613.554	56071.52
613.911	56461.34
614.267	56540.43
614.624	56617.95
614.98	56876.7
615.337	57092.06
615.693	57156.46
616.05	57231.04
616.406	57461.54
616.762	57520.75
617.118	57607.75
617.475	57697.24
617.831	57901.08
618.187	57939.49
618.543	58111.92
618.899	58269.43
619.255	58241.18
619.611	58299.03
619.967	58486.6
620.323	58633.49
620.678	58601.17
621.034	58577.67
621.39	58717.1
621.746	58704.67
622.101	59078.22
622.457	58910.54
622.812	59029.41
623.168	59156.64
623.523	59205.45
623.879	59286.12
624.234	59215.39
624.589	59288.38
624.945	59308.05
625.3	59407.03
625.655	59468.04
626.01	59469.62
626.365	59516.4
626.72	59546
627.075	59539.9
627.43	59604.31
627.785	59686.34
628.14	59691.09
628.495	59731.54
628.85	59765.43
629.205	59703.29
629.559	59855.15
629.914	59682.72
630.269	59772.44
630.623	59673.69
630.978	59680.46
631.332	59836.84
631.687	59813.12
632.041	59744.42
632.396	59818.77
632.75	59733.8
633.104	59835.71
633.459	59699
633.813	59751.42
634.167	59693.35
634.521	59767.69
634.875	59750.07
635.229	59701.26
635.583	59609.05
635.937	59621.26
636.291	59653.8
636.645	59642.73
636.999	59495.38
637.352	59602.73
637.706	59462.39
638.06	59556.4
638.413	59457.65
638.767	59459.68
639.121	59458.1
639.474	59409.29
639.828	59390.75
640.181	59370.19
640.534	59392.56
640.888	59273.92
641.241	59183.53
641.594	59302.85
641.947	59307.37
642.301	59254.04
642.654	59248.16
643.007	59199.12
643.36	59193.02
643.713	59161.38
644.066	59207.03
644.419	59087.49
644.771	58817.66
645.124	58584.67
645.477	58600.49
645.83	58472.13
646.182	58502.42
646.535	58379.48
646.888	58448.86
647.24	58357.79
647.593	58513.04
647.945	58367.05
648.298	58333.83
648.65	58188.98
649.002	58107.4
649.355	58021.75
649.707	58027.4
650.059	58072.6
650.411	58382.19
650.763	58418.12
651.115	58769.53
651.467	58683.65
651.819	58734.5
652.171	58640.04
652.523	58592.58
652.875	58618.12
653.227	58536.54
653.578	58701.06
653.93	58609.53
654.282	58451.8
654.633	58406.83
654.985	58494.73
655.337	58487.73
655.688	58451.8
656.039	58534.05
656.391	58359.14
656.742	58378.8
657.094	58330.9
657.445	58369.76
657.796	58444.11
658.147	58302.87
658.498	58390.1
658.849	58404.34
659.2	58333.38
659.551	58255.19
659.902	58431.68
660.253	58273.95
660.604	58318.69
660.955	58177.91
661.306	58342.42
661.656	58282.76
662.007	58305.59
662.358	58263.33
662.708	58364.12
663.059	58333.16
663.409	58125.25
663.76	58284.12
664.11	58274.4
664.461	58318.69
664.811	58277.56
665.161	58266.72
665.511	58156.44
665.862	58192.37
666.212	58239.82
666.562	58359.6
666.912	58243.67
667.262	58145.59
667.612	58188.53
667.962	58247.28
668.312	58212.48
668.662	58290.67
669.011	58240.5
669.361	58195.76
669.711	58164.57
670.06	58157.11
670.41	58097
670.76	58146.72
671.109	58226.49
671.459	58146.27
671.808	58152.6
672.157	58146.72
672.507	58061.07
672.856	58043.67
673.205	58058.13
673.554	58105.36
673.904	58036.21
674.253	58223.78
674.602	58076.89
674.951	57703.12
675.3	57593.74
675.649	58041.41
675.998	58007.06
676.346	57959.15
676.695	58034.18
677.044	57838.48
677.393	57948.31
677.741	58005.03
678.09	57946.27
678.438	57888.42
678.787	57911.02
679.135	57889.1
679.484	57744.92
679.832	57833.28
680.181	57756.45
680.529	57790.12
680.877	57718.71
681.225	57626.96
681.573	57826.5
681.922	57655.21
682.27	57587.64
682.618	57614.3
682.966	57507.64
683.314	57565.72
683.661	57464.48
684.009	57372.28
684.357	57325.05
684.705	57259.96
685.053	57287.99
685.4	57191.04
685.748	57149.46
686.095	57194.65
686.443	56991.04
686.79	57040.08
687.138	57099.29
687.485	57081.44
687.832	56964.6
688.18	56980.2
688.527	56831.27
688.874	56818.62
689.221	56730.03
689.568	56559.19
689.915	56561.68
690.262	56632.86
690.609	56489.14
690.956	56377.5
691.303	56382.92
691.65	56233.78
691.997	56227.9
692.344	56040.79
692.69	56118.98
693.037	56010.05
693.383	55850.06
693.73	55899.77
694.077	55733.45
694.423	55713.79
694.769	55606.67
695.116	55641.47
695.462	55569.61
695.808	55370.07
696.155	55457.75
696.501	55194.03
696.847	55310.41
697.193	55083.3
697.539	55154.48
697.885	54942.28
698.231	54876.75
698.577	54922.17
698.923	54865.45
699.269	54627.72
699.614	54618.68
699.96	54446.03
700.306	54553.14
700.651	54418
700.997	54266.14
701.342	54157.22
701.688	54191.57
702.033	53975.76
702.379	54017.34
702.724	53897.11
703.069	53950.67
703.415	53673.39
703.76	53577.57
704.105	53514.07
704.45	53596.33
704.795	53435.21
705.14	53307.75
705.485	53350.69
705.83	53015.1
706.175	53232.95
706.52	53020.53
706.865	52934.2
707.209	52848.55
707.554	52777.82
707.899	52856.46
708.243	52602.01
708.588	52667.54
708.932	52448.34
709.277	52498.05
709.621	52383.93
709.966	52148.01
710.31	52195.46
710.654	51976.26
710.998	52112.08
711.342	52111.62
711.687	51904.62
712.031	51740.79
712.375	51612.2
712.719	51610.62
713.063	51562.71
713.407	51656.27
713.75	51483.17
714.094	51484.07
714.438	51408.37
714.782	51358.42
715.125	51124.08
715.469	51275.94
715.812	51003.63
716.156	50979.9
716.499	50963.18
716.843	51033.23
717.186	50859
717.53	50919.11
717.873	50889.28
718.216	50720.47
718.559	50654.71
718.902	50441.39
719.246	50403.87
719.589	50448.62
719.932	50318.22
720.275	50229.87
720.617	50214.72
720.96	50042.75
721.303	50138.34
721.646	50193.93
721.989	49988.06
722.331	50113.03
722.674	49868.29
723.016	49852.7
723.359	49657.9
723.701	49760.5
724.044	49687.28
724.386	49569.54
724.729	49616.1
725.071	49556.44
725.413	49556.89
725.755	49401.86
726.097	49327.06
726.439	49195.99
726.782	49162.78
727.124	49381.3
727.465	49211.14
727.807	49084.81
728.149	49019.5
728.491	49054.76
728.833	49035.32
729.175	48876.91
729.516	48845.72
729.858	48752.62
730.199	48900.64
730.541	48765.5
730.882	48583.58
731.224	48624.94
731.565	48556.01
731.906	48576.12
732.248	48470.36
732.589	48248
732.93	48297.94
733.271	48321.89
733.612	48206.87
733.953	48331.61
734.294	48082.8
734.635	48097.27
734.976	48200.99
735.317	48096.14
735.658	48038.74
735.999	47842.36
736.339	47771.17
736.68	47949.7
737.021	47930.72
737.361	47620.22
737.702	47848.46
738.042	47650.05
738.383	47648.01
738.723	47783.6
739.063	47532.08
739.404	47749.93
739.744	47577.96
740.084	47480.56
740.424	47484.18
740.764	47330.05
741.104	47609.14
741.444	47187.69
741.784	47135.94
742.124	47324.18
742.464	47152.21
742.804	47194.01
743.143	46917.86
743.483	47069.72
743.823	46944.3
744.162	46926.22
744.502	47011.42
744.841	46760.8
745.181	46817.75
745.52	46733.69
745.86	46724.87
746.199	46607.81
746.538	46600.81
746.877	46634.48
747.216	46661.82
747.556	46433.58
747.895	46497.31
748.234	46290.08
748.573	46392.23
748.911	46286.69
749.25	46264.77
749.589	46071.33
749.928	46153.14
750.267	46042.41
750.605	46029.98
750.944	45959.7
751.283	45878.79
751.621	45785.69
751.96	45760.6
752.298	45724.45
752.636	45561.29
752.975	45417.34
753.313	45297.57
753.651	45618.01
753.989	45255.76
754.327	45344.8
754.666	45040.4
755.004	45145.93
755.342	45059.38
755.679	45036.33
756.017	44870.46
756.355	44977.8
756.693	44630.69
757.031	44798.82
757.368	44512.5
757.706	44373.52
758.044	44388.21
758.381	44417.82
758.719	44287.2
759.056	44418.49
759.394	43964.27
759.731	43737.38
760.068	43801.56
760.405	43736.03
760.743	43613.99
761.08	43695.35
761.417	43417.39
761.754	43372.64
762.091	43338.07
762.428	43135.14
762.765	42957.29
763.102	43006.33
763.438	42816.73
763.775	42498.54
764.112	42482.27
764.449	42469.17
764.785	42365.21
765.122	42079.8
765.458	41896.53
765.795	41943.53
766.131	41950.99
766.467	41834.38
766.804	41540.83
767.14	41376.77
767.476	41360.27
767.812	41195.75
768.148	41163.66
768.485	41029.43
768.821	40602.77
769.157	40709.89
769.492	40446.62
769.828	40433.06
770.164	40099.74
770.5	40106.97
770.836	40027.2
771.171	39750.82
771.507	39755.56
771.842	39499.98
772.178	39537.49
772.513	39322.13
772.849	39059.31
773.184	39097.28
773.519	38950.39
773.855	38752.65
774.19	38732.54
774.525	38461.14
774.86	38446.45
775.195	38327.81
775.53	38191.31
775.865	37970.53
776.2	37710.19
776.535	37643.3
776.87	37520.6
777.205	37387.27
777.539	37293.93
777.874	37331.67
778.209	36973.04
778.543	37014.62
778.878	36669.09
779.212	36504.12
779.547	36467.74
779.881	36428.87
780.215	36153.17
780.55	36177.13
780.884	35907.53
781.218	35806.74
781.552	35945.72
781.886	35679.74
782.22	35429.8
782.554	35261.67
782.888	35036.37
783.222	34897.16
783.556	34740.1
783.889	34520
784.223	34462.6
784.557	34422.82
784.89	34509.38
785.224	34254.47
785.557	33969.95
785.891	33927.24
786.224	33999.56
786.558	33837.98
786.891	33623.97
787.224	33327.26
787.557	33428.5
787.891	33365.45
788.224	32948.51
788.557	33051.11
788.89	33119.13
789.223	32894.5
789.556	32656.77
789.888	32660.61
790.221	32439.15
790.554	32426.94
790.887	32313.27
791.219	32135.88
791.552	32090.23
791.884	31862.67
792.217	31765.27
792.549	31703.8
792.882	31400.3
793.214	31428.78
793.546	31425.16
793.879	31206.41
794.211	30998.05
794.543	31156.92
794.875	30999.86
795.207	30912.18
795.539	30690.27
795.871	30717.38
796.203	30591.74
796.535	30416.15
796.867	30383.61
797.198	30272.42
797.53	30314.46
797.862	29914.47
798.193	30011.19
798.525	29875.82
798.856	29984.3
799.188	29471.32
799.519	29488.49
799.85	29424.76
800.182	29413.46
800.513	29535.72
800.844	28942.29
801.175	29200.14
801.506	29081.27
801.837	28965.34
802.168	28907.71
802.499	28889.64
802.83	28672.92
803.161	28501.4
803.491	28638.34
803.822	28712.69
804.153	28404.9
804.483	28215.53
804.814	27976.67
805.145	28169.65
805.475	28101.86
805.805	27830.45
806.136	28072.26
806.466	27879.72
806.796	27884.92
807.126	27690.12
807.457	27672.04
807.787	27602.21
808.117	27385.27
808.447	27432.5
808.777	27368.09
809.107	27193.86
809.436	27186.18
809.766	27178.49
810.096	27074.09
810.426	26926.75
810.755	26963.36
811.085	26921.78
811.414	26918.84
811.744	26727.66
812.073	26609.7
812.403	26537.38
812.732	26428.01
813.061	26525.63
813.39	26289.7
813.719	26285.18
814.049	26344.84
814.378	26256.26
814.707	26084.96
815.036	26136.94
815.365	25858.53
815.693	25820.79
816.022	25762.03
816.351	25777.63
816.68	25559.1
817.008	25784.86
817.337	25451.99
817.665	25404.53
817.994	25426.22
818.322	25608.82
818.651	25433.68
818.979	25162.5
819.307	25331.99
819.636	25231.43
819.964	25144.2
820.292	25163.63
820.62	25064.65
820.948	25144.65
821.276	25210.18
821.604	25035.27
821.932	25240.92
822.259	25092.67
822.587	25059.68
822.915	25026.01
823.243	25127.7
823.57	24997.31
823.898	25161.82
824.225	25001.15
824.553	24885
824.88	25037.99
825.207	24955.5
825.535	24860.36
825.862	25044.09
826.189	24984.88
826.516	25211.31
826.843	25153.01
827.17	25167.02
827.497	25082.05
827.824	25107.14
828.151	25104.42
828.478	25010.42
828.805	25089.96
829.131	25026.23
829.458	25160.47
829.785	24877.54
830.111	24978.1
830.438	25205.89
830.764	25048.83
831.09	25048.61
831.417	24820.59
831.743	25091.54
832.069	24901.04
832.395	24845
832.722	24973.58
833.048	24848.39
833.374	24910.53
833.7	24785.11
834.026	24800.25
834.351	24710.31
834.677	24919.57
835.003	24801.38
835.329	24760.25
835.654	24750.76
835.98	24557.09
836.306	24812
836.631	24494.72
836.956	24761.38
837.282	24757.54
837.607	24636.41
837.932	24635.28
838.258	24575.62
838.583	24583.99
838.908	24484.1
839.233	24373.82
839.558	24422.86
839.883	24292.69
840.208	24141.96
840.533	24252.02
840.858	24202.75
841.182	24334.5
841.507	24173.83
841.832	24132.92
842.156	24123.89
842.481	23978.8
842.805	23970.67
843.13	23760.96
843.454	23875.3
843.778	23821.07
844.103	23736.33
844.427	23743.33
844.751	23774.97
845.075	23732.26
845.399	23553.05
845.723	23463.79
846.047	23523.68
846.371	23338.37
846.695	23209.11
847.019	23201.88
847.343	23080.98
847.666	23001.43
847.99	22937.7
848.313	22810.7
848.637	22681.89
848.96	22668.1
849.284	22709.01
849.607	22379.75
849.931	22379.07
850.254	22341.11
850.577	22100.66
850.9	22059.08
851.223	21949.48
851.546	21964.17
851.869	21751.29
852.192	21977.28
852.515	21594.91
852.838	21572.54
853.161	21561.69
853.483	21331.42
853.806	21398.53
854.129	21341.81
854.451	21243.06
854.774	21126.45
855.096	21111.99
855.419	20947.25
855.741	21044.87
856.063	20792.9
856.385	20870.41
856.708	20625.22
857.03	20846.68
857.352	20671.55
857.674	20639.68
857.996	20481.27
858.318	20373.02
858.64	20437.88
858.961	20441.5
859.283	20318.79
859.605	20194.72
859.926	20199.02
860.248	20114.05
860.57	20000.83
860.891	19970.55
861.212	19958.12
861.534	19825.69
861.855	19791.57
862.176	19886.26
862.498	19889.42
862.819	19881.29
863.14	19701.18
863.461	19717.9
863.782	19540.05
864.103	19571.91
864.424	19550.67
864.745	19580.5
865.065	19446.04
865.386	19283.79
865.707	19390.45
866.027	19419.6
866.348	19360.39
866.668	19194.07
866.989	19262.54
867.309	19110.91
867.63	19072.94
867.95	19111.59
868.27	19072.04
868.59	19040.18
868.91	19069.33
869.23	18932.84
869.55	18874.53
869.87	18968.31
870.19	18752.73
870.51	18716.57
870.83	18874.98
871.15	18771.03
871.469	18661.66
871.789	18773.97
872.109	18803.35
872.428	18601.77
872.748	18722.9
873.067	18682.67
873.386	18663.24
873.706	18543.47
874.025	18389.35
874.344	18363.81
874.663	18518.38
874.982	18395
875.301	18408.1
875.62	18350.48
875.939	18279.52
876.258	18305.96
876.577	18176.92
876.896	18245.62
877.214	18244.72
877.533	18272.29
877.852	18152.07
878.17	18189.58
878.489	18174.66
878.807	18027.32
879.125	18007.89
879.444	18000.2
879.762	17981.45
880.08	18068.23
880.398	17953.88
880.716	17805.18
881.034	17845.86
881.352	17892.64
881.67	17851.51
881.988	17722.25
882.306	17734.67
882.624	17739.42
882.941	17668.46
883.259	17519.54
883.577	17622.14
883.894	17444.97
884.212	17471.86
884.529	17463.04
884.846	17386.66
885.164	17380.33
885.481	17283.16
885.798	17392.09
886.115	17220.34
886.432	17189.6
886.75	17106.22
887.067	17028.03
887.383	16964.75
887.7	17064.41
888.017	16844.3
888.334	17009.5
888.651	16905.54
888.967	16840.91
889.284	16766.79
889.6	16693.8
889.917	16600.69
890.233	16607.47
890.55	16539.9
890.866	16545.78
891.182	16464.43
891.498	16517.08
891.815	16357.54
892.131	16337.42
892.447	16355.28
892.763	16230.53
893.079	16283.87
893.395	16153.25
893.71	16096.53
894.026	16057.66
894.342	16045.45
894.657	15903.08
894.973	15866.48
895.289	15894.72
895.604	15752.13
895.92	15770.21
896.235	15682.75
896.55	15635.52
896.865	15673.03
897.181	15540.16
897.496	15609.31
897.811	15434.85
898.126	15337.22
898.441	15438.46
898.756	15391.46
899.071	15228.53
899.386	15272.82
899.7	15121.86
900.015	15117.12
900.33	15024.24
900.644	14951.25
900.959	14920.96
901.273	14899.27
901.588	14817.69
901.902	14705.6
902.216	14694.98
902.531	14656.79
902.845	14653.63
903.159	14510.8
903.473	14494.53
903.787	14458.38
904.101	14304.93
904.415	14417.25
904.729	14292.05
905.042	14198.04
905.356	14196.24
905.67	14157.82
905.984	14135
906.297	14074.88
906.611	14020.65
906.924	13960.99
907.237	13921.44
907.551	13868.34
907.864	13754.67
908.177	13806.42
908.491	13643.26
908.804	13603.48
909.117	13559.87
909.43	13501.57
909.743	13448.23
910.056	13358.52
910.368	13267.9
910.681	13229.03
910.994	13316.49
911.307	13186.09
911.619	13008.47
911.932	13085.53
912.244	13023.39
912.557	12878.31
912.869	12822.94
913.181	12912.43
913.494	12831.08
913.806	12697.07
914.118	12721.7
914.43	12631.53
914.742	12596.96
915.054	12544.53
915.366	12491.42
915.678	12364.19
915.99	12348.38
916.302	12271.54
916.613	12326.23
916.925	12222.73
917.236	12169.62
917.548	12096.86
917.859	12055.28
918.171	11981.61
918.482	11889.4
918.794	11846.02
919.105	11841.5
919.416	11838.78
919.727	11738.45
920.038	11698.9
920.349	11602.18
920.66	11643.31
920.971	11593.82
921.282	11480.6
921.593	11409.19
921.903	11398.12
922.214	11429.76
922.525	11349.31
922.835	11336.2
923.146	11211.23
923.456	11156.77
923.767	11093.04
924.077	11147.05
924.387	11143.44
924.697	11001.52
925.008	10965.59
925.318	10877
925.628	10892.37
925.938	10829.09
926.248	10731.92
926.558	10690.34
926.867	10658.48
927.177	10615.99
927.487	10532.38
927.796	10545.94
928.106	10540.29
928.416	10436.34
928.725	10406.96
929.034	10274.76
929.344	10364.25
929.653	10298.49
929.962	10198.38
930.271	10180.98
930.581	10146.17
930.89	9977.14
931.199	10006.74
931.508	10023.01
931.817	9989.12
932.125	9919.97
932.434	9914.99
932.743	9710.03
933.051	9784.15
933.36	9715.9
933.669	9707.99
933.977	9697.15
934.286	9638.84
934.594	9610.59
934.902	9534.89
935.21	9442.69
935.519	9471.16
935.827	9419.19
936.135	9337.83
936.443	9307.33
936.751	9234.56
937.059	9252.41
937.367	9185.3
937.674	9182.36
937.982	9140.32
938.29	9101
938.597	9054.45
938.905	8935.81
939.213	8896.94
939.52	8876.38
939.827	8947.34
940.135	8884.96
940.442	8841.58
940.749	8803.16
941.056	8751.18
941.363	8657.63
941.67	8646.55
941.977	8603.62
942.284	8581.24
942.591	8567.01
942.898	8512.32
943.205	8509.38
943.511	8449.72
943.818	8473
944.125	8356.84
944.431	8333.57
944.738	8316.17
945.044	8246.34
945.35	8152.1
945.657	8139.67
945.963	8165.44
946.269	8143.06
946.575	8099
946.881	8037.08
947.187	8026.46
947.493	8007.93
947.799	7928.83
948.105	7918.89
948.41	7832.34
948.716	7831.88
949.022	7756.18
949.327	7776.52
949.633	7602.96
949.938	7664.88
950.244	7712.11
950.549	7605.22
950.854	7564.32
951.16	7523.42
951.465	7523.87
951.77	7447.71
952.075	7461.27
952.38	7418.79
952.685	7372.01
952.99	7317.32
953.294	7287.04
953.599	7303.76
953.904	7216.99
954.209	7190.09
954.513	7170.66
954.818	7131.11
955.122	7075.75
955.426	7071.68
955.731	7005.47
956.035	7026.93
956.339	7011.57
956.643	6994.62
956.948	6902.64
957.252	6865.36
957.556	6839.37
957.86	6842.08
958.163	6809.31
958.467	6747.39
958.771	6750.78
959.075	6765.25
959.378	6687.06
959.682	6715.98
959.985	6591.69
960.289	6573.39
960.592	6500.17
960.896	6446.61
961.199	6509.43
961.502	6477.57
961.805	6417.01
962.108	6445.48
962.411	6355.54
962.714	6316.22
963.017	6368.65
963.32	6348.76
963.623	6254.3
963.926	6259.5
964.228	6194.87
964.531	6194.19
964.833	6189.22
965.136	6118.94
965.438	6128.2
965.741	6057.92
966.043	5996.45
966.345	6034.19
966.648	5996.68
966.95	5925.95
967.252	5891.14
967.554	5882.78
967.856	5881.2
968.158	5800.53
968.46	5826.06
968.761	5832.39
969.063	5802.33
969.365	5786.97
969.666	5705.61
969.968	5706.52
970.269	5661.77
970.571	5666.97
970.872	5646.18
971.174	5605.73
971.475	5572.06
971.776	5584.49
972.077	5560.98
972.378	5528.67
972.679	5473.75
972.98	5435.34
973.281	5408.9
973.582	5384.27
973.883	5442.34
974.183	5318.73
974.484	5339.07
974.785	5282.35
975.085	5273.76
975.386	5269.92
975.686	5283.48
975.986	5217.26
976.287	5196.93
976.587	5157.83
976.887	5167.32
977.187	5150.83
977.487	5129.13
977.787	5044.84
978.087	5080.54
978.387	5104.72
978.687	4997.38
978.987	4982.47
979.286	4902.02
979.586	4941.34
979.885	4887.56
980.185	4876.26
980.484	4869.25
980.784	4831.74
981.083	4855.92
981.382	4761.91
981.682	4768.46
981.981	4770.95
982.28	4782.93
982.579	4729.82
982.878	4702.93
983.177	4671.06
983.475	4688.46
983.774	4615.92
984.073	4584.96
984.372	4549.48
984.67	4555.59
984.969	4565.76
985.267	4593.78
985.566	4525.53
985.864	4506.77
986.162	4497.51
986.461	4440.11
986.759	4415.7
987.057	4382.94
987.355	4370.73
987.653	4355.14
987.951	4310.17
988.249	4280.11
988.547	4272.88
988.844	4277.18
989.142	4236.05
989.44	4236.05
989.737	4210.28
990.035	4190.85
990.332	4180
990.63	4125.77
990.927	4118.08
991.224	4092.77
991.521	4082.38
991.819	4095.71
992.116	4073.79
992.413	4032.21
992.71	4017.97
993.006	4027.46
993.303	3961.7
993.6	3952.66
993.897	3949.5
994.193	3943.4
994.49	3889.16
994.787	3860.46
995.083	3860.24
995.379	3834.48
995.676	3818.88
995.972	3790.41
996.268	3780.24
996.565	3781.14
996.861	3740.92
997.157	3707.93
997.453	3714.7
997.749	3730.52
998.044	3656.85
998.34	3639.45
998.636	3623.41
998.932	3608.04
999.227	3589.51
999.523	3575.73
999.818	3552
1000.114	3551.77
1000.409	3530.53
1000.704	3465.9
1001	3510.19
1001.295	3432.68
1001.59	3431.77
1001.885	3434.94
1002.18	3376.18
1002.475	3351.1
1002.77	3359.46
1003.065	3300.03
1003.359	3285.11
1003.654	3311.55
1003.949	3256.86
1004.243	3270.87
1004.538	3238.78
1004.832	3235.4
1005.127	3196.3
1005.421	3220.25
1005.715	3176.19
1006.009	3183.87
1006.304	3140.71
1006.598	3116.08
1006.892	3072.91
1007.186	3064.1
1007.48	3070.2
1007.773	3017.55
1008.067	3017.1
1008.361	2996.31
1008.655	2995.18
1008.948	2969.64
1009.242	2907.04
1009.535	2919.02
1009.829	2915.18
1010.122	2872.24
1010.415	2872.47
1010.708	2848.51
1011.001	2881.28
1011.295	2835.86
1011.588	2815.29
1011.881	2827.95
1012.173	2766.03
1012.466	2787.05
1012.759	2700.49
1013.052	2720.38
1013.344	2679.03
1013.637	2664.56
1013.93	2683.09
1014.222	2648.29
1014.514	2637.67
1014.807	2629.31
1015.099	2586.82
1015.391	2621.4
1015.683	2588.63
1015.976	2520.84
1016.268	2526.26
1016.56	2555.86
1016.851	2523.78
1017.143	2479.71
1017.435	2488.52
1017.727	2444.68
1018.018	2408.75
1018.31	2413.5
1018.602	2412.37
1018.893	2369.43
1019.185	2359.71
1019.476	2347.06
1019.767	2326.72
1020.058	2319.26
1020.35	2293.05
1020.641	2286.95
1020.932	2259.15
1021.223	2248.08
1021.514	2252.6
1021.804	2208.76
1022.095	2192.48
1022.386	2205.14
1022.677	2166.04
1022.967	2184.58
1023.258	2092.83
1023.548	2122.88
1023.839	2118.36
1024.129	2110.68
1024.419	2087.18
1024.709	2061.87
1025	2046.73
1025.29	2055.09
1025.58	2038.82
1025.87	2010.12
1026.16	1996.56
1026.449	2032.26
1026.739	1990.68
1027.029	1962.89
1027.319	1940.74
1027.608	1931.93
1027.898	1918.59
1028.187	1910.23
1028.477	1893.28
1028.766	1881.08
1029.055	1869.1
1029.344	1839.27
1029.634	1823.91
1029.923	1812.61
1030.212	1798.14
1030.501	1787.3
1030.79	1766.28
1031.078	1754.08
1031.367	1758.82
1031.656	1760.41
1031.945	1715.21
1032.233	1715.66
1032.522	1729.45
1032.81	1706.4
1033.099	1694.42
1033.387	1680.18
1033.675	1655.32
1033.963	1656.91
1034.251	1638.83
1034.54	1616.91
1034.828	1591.6
1035.116	1607.64
1035.403	1590.92
1035.691	1565.83
1035.979	1552.28
1036.267	1561.09
1036.554	1557.93
1036.842	1534.42
1037.129	1536
1037.417	1498.04
1037.704	1495.1
1037.992	1491.94
1038.279	1497.81
1038.566	1460.07
1038.853	1460.07
1039.14	1460.07
