Data from 214_FLMS001491_002.txt Node
Date: Thu Apr 19 16:36:39 BST 2018
User: hsy
Spectrometer: FLMS00149
Trigger mode: 0
Integration Time (sec): 1.000000E-2
Scans to average: 10
Electric dark correction enabled: true
Nonlinearity correction enabled: false
Boxcar width: 0
XAxis mode: Wavelengths
Number of Pixels in Spectrum: 2048
>>>>>Begin Spectral Data<<<<<
341.393	-6.06
341.776	-6.06
342.16	-6.06
342.543	-65.49
342.927	-74.08
343.31	-69.33
343.693	-74.08
344.077	-72.5
344.46	-49.45
344.843	-65.72
345.226	-45.83
345.61	-32.73
345.993	-16.23
346.376	3.66
346.759	21.96
347.142	19.48
347.525	63.09
347.908	49.08
348.291	69.87
348.674	76.88
349.057	121.85
349.44	129.08
349.823	141.73
350.206	153.03
350.588	239.13
350.971	225.12
351.354	256.76
351.737	257.21
352.119	282.29
352.502	291.11
352.884	313.48
353.267	329.07
353.65	335.17
354.032	344.21
354.414	342.63
354.797	334.04
355.179	354.16
355.562	387.6
355.944	367.49
356.326	381.73
356.709	365.23
357.091	399.58
357.473	402.52
357.855	363.2
358.238	387.38
358.62	395.74
359.002	371.56
359.384	352.12
359.766	383.76
360.148	369.07
360.53	383.31
360.912	395.29
361.294	379.69
361.676	370.65
362.057	383.31
362.439	373.14
362.821	371.33
363.203	370.2
363.584	358.23
363.966	385.57
364.348	366.81
364.729	374.5
365.111	369.75
365.493	357.77
365.874	373.59
366.256	362.97
366.637	389.41
367.019	372.24
367.4	360.71
367.781	371.78
368.163	376.08
368.544	374.27
368.925	375.85
369.306	358.45
369.688	355.74
370.069	393.48
370.45	394.61
370.831	391.44
371.212	384.67
371.593	378.11
371.974	377.66
372.355	366.13
372.736	377.43
373.117	391.22
373.498	372.69
373.879	375.85
374.26	386.7
374.641	366.81
375.021	381.73
375.402	392.12
375.783	416.08
376.163	393.03
376.544	414.95
376.925	416.08
377.305	389.41
377.686	396.64
378.066	385.79
378.447	408.39
378.827	421.05
379.208	420.14
379.588	408.17
379.968	415.85
380.349	420.82
380.729	438.67
381.109	404.1
381.489	420.6
381.87	453.36
382.25	421.27
382.63	434.16
383.01	430.99
383.39	448.62
383.77	443.19
384.15	450.88
384.53	446.81
384.91	448.39
385.29	423.31
385.67	427.83
386.049	466.02
386.429	459.92
386.809	455.4
387.189	453.14
387.568	492.46
387.948	454.27
388.328	479.13
388.707	490.42
389.087	494.94
389.466	485.68
389.846	501.72
390.225	489.97
390.605	492.01
390.984	511.44
391.363	499.92
391.743	497.66
392.122	508.28
392.501	523.64
392.881	501.5
393.26	541.95
393.639	518.67
394.018	526.81
394.397	506.02
394.776	515.96
395.155	552.57
395.534	544.66
395.913	554.83
396.292	555.96
396.671	558.67
397.05	546.92
397.429	544.89
397.808	569.07
398.186	587.37
398.565	579.69
398.944	569.29
399.323	597.54
399.701	585.11
400.08	583.53
400.458	569.74
400.837	614.26
401.215	585.34
401.594	590.31
401.972	604.55
402.351	613.13
402.729	608.84
403.107	610.87
403.486	615.39
403.864	611.1
404.242	615.39
404.62	630.99
404.999	656.07
405.377	647.71
405.755	620.14
406.133	677.76
406.511	657.2
406.889	674.6
407.267	680.25
407.645	665.34
408.023	699.91
408.401	698.78
408.779	713.7
409.156	740.36
409.534	717.54
409.912	712.34
410.29	763.41
410.667	756.63
411.045	764.54
411.422	770.42
411.8	764.54
412.178	809.29
412.555	797.08
412.933	819
413.31	830.3
413.687	813.13
414.065	852.22
414.442	840.92
414.819	847.25
415.197	843.41
415.574	866.01
415.951	914.14
416.328	896.06
416.705	884.76
417.082	909.62
417.46	879.12
417.837	935.61
418.214	928.61
418.591	967.02
418.967	920.24
419.344	916.18
419.721	961.37
420.098	968.15
420.475	977.42
420.852	994.59
421.228	978.55
421.605	1007.47
421.982	1024.65
422.358	1007.02
422.735	1020.13
423.111	1025.55
423.488	1037.3
423.864	1075.27
424.241	1076.4
424.617	1068.04
424.994	1078.43
425.37	1086.79
425.746	1070.3
426.123	1108.26
426.499	1132.44
426.875	1134.93
427.251	1147.81
427.627	1180.58
428.003	1176.06
428.379	1206.11
428.756	1197.3
429.132	1193.68
429.507	1231.42
429.883	1233
430.259	1249.73
430.635	1271.2
431.011	1291.08
431.387	1291.53
431.763	1336.28
432.138	1345.32
432.514	1348.71
432.89	1346.22
433.265	1391.87
433.641	1424.41
434.016	1408.14
434.392	1444.3
434.767	1470.51
435.143	1491.3
435.518	1505.09
435.894	1522.26
436.269	1527.46
436.644	1552.77
437.02	1568.59
437.395	1561.81
437.77	1586.22
438.145	1585.76
438.52	1598.42
438.895	1639.55
439.271	1615.37
439.646	1659.21
440.021	1673.9
440.395	1701.92
440.77	1673.67
441.145	1698.3
441.52	1724.06
441.895	1713.44
442.27	1744.86
442.645	1714.57
443.019	1743.5
443.394	1748.92
443.769	1772.2
444.143	1788.92
444.518	1784.18
444.892	1802.03
445.267	1802.03
445.641	1823.5
446.016	1795.48
446.39	1848.81
446.764	1854.68
447.139	1850.62
447.513	1866.66
447.887	1883.38
448.262	1871.86
448.636	1892.42
449.01	1917.96
449.384	1925.64
449.758	1943.72
450.132	1913.89
450.506	2001.12
450.88	2012.87
451.254	1995.47
451.628	2021.01
452.002	2047.9
452.376	2041.12
452.75	2040.89
453.123	2084.73
453.497	2137.16
453.871	2109.59
454.244	2199.31
454.618	2215.13
454.992	2224.39
455.365	2223.94
455.739	2265.29
456.112	2266.65
456.486	2292.19
456.859	2353.65
457.232	2371.51
457.606	2361.34
457.979	2380.09
458.352	2401.56
458.725	2454.89
459.099	2503.25
459.472	2519.3
459.845	2560.65
460.218	2557.72
460.591	2544.38
460.964	2605.85
461.337	2657.6
461.71	2663.02
462.083	2724.26
462.456	2675.68
462.829	2721.78
463.201	2765.85
463.574	2750.7
463.947	2806.07
464.32	2849.68
464.692	2871.15
465.065	2895.79
465.438	2895.11
465.81	2984.6
466.183	2955.9
466.555	2987.99
466.928	3033.86
467.3	3062.11
467.672	3084.26
468.045	3144.59
468.417	3138.94
468.789	3167.42
469.161	3173.97
469.534	3271.59
469.906	3275.44
470.278	3293.74
470.65	3287.41
471.022	3377.81
471.394	3444.7
471.766	3446.05
472.138	3515.43
472.51	3519.95
472.882	3565.15
473.253	3583.68
473.625	3647.4
473.997	3698.7
474.369	3732.6
474.74	3784.8
475.112	3824.35
475.484	3845.59
475.855	3980.28
476.227	3944.12
476.598	4057.11
476.97	4083.32
477.341	4169.2
477.713	4215.52
478.084	4239.25
478.455	4294.84
478.827	4354.5
479.198	4480.83
479.569	4509.53
479.94	4594.95
480.311	4625.01
480.682	4708.62
481.053	4822.97
481.424	4895.05
481.795	4907.71
482.166	5031.32
482.537	5107.25
482.908	5159.45
483.279	5266.12
483.65	5308.6
484.021	5350.41
484.391	5466.34
484.762	5491.2
485.133	5540.46
485.503	5607.8
485.874	5732.77
486.244	5798.08
486.615	5882.15
486.985	5947.46
487.356	6112.88
487.726	6100.45
488.097	6217.05
488.467	6289.82
488.837	6391.29
489.207	6502.02
489.578	6537.72
489.948	6641.22
490.318	6735.91
490.688	6748.34
491.058	6885.06
491.428	6922.35
491.798	7033.98
492.168	7109.01
492.538	7121.44
492.908	7247.99
493.278	7293.86
493.648	7348.32
494.017	7386.51
494.387	7485.72
494.757	7517.36
495.126	7562.56
495.496	7634.19
495.866	7708.09
496.235	7754.41
496.605	7823.57
496.974	7889.55
497.344	7993.96
497.713	7964.13
498.082	8016.78
498.452	8153.95
498.821	8142.88
499.19	8210.45
499.559	8223.55
499.928	8268.07
500.298	8284.57
500.667	8374.06
501.036	8401.18
501.405	8448.86
501.774	8471.01
502.143	8531.34
502.512	8585.58
502.88	8603.88
503.249	8580.16
503.618	8753.71
503.987	8689.76
504.356	8755.52
504.724	8822.64
505.093	8850.43
505.462	8830.77
505.83	8860.15
506.199	8972.91
506.567	9065.34
506.936	8996.42
507.304	9171.78
507.672	9188.28
508.041	9133.14
508.409	9265.56
508.777	9318.89
509.145	9341.27
509.514	9372.45
509.882	9406.8
510.25	9463.52
510.618	9542.39
510.986	9549.85
511.354	9669.62
511.722	9718.88
512.09	9784.42
512.458	9717.53
512.826	9927.01
513.193	9893.12
513.561	9909.39
513.929	10060.12
514.297	10084.97
514.664	10156.84
515.032	10187.8
515.4	10261.24
515.767	10283.84
516.135	10329.71
516.502	10320.67
516.869	10541.01
517.237	10538.07
517.604	10512.76
517.972	10739.65
518.339	10675.47
518.706	10795.01
519.073	10783.04
519.44	10872.3
519.808	11049.24
520.175	10985.74
520.542	11186.87
520.909	11225.06
521.276	11264.83
521.643	11417.14
522.009	11492.17
522.376	11595.67
522.743	11666.18
523.11	11763.35
523.477	11961.54
523.843	11934.87
524.21	12061.87
524.577	12203.11
524.943	12347.06
525.31	12300.96
525.676	12500.73
526.043	12608.07
526.409	12682.87
526.776	12881.96
527.142	12895.3
527.508	13001.73
527.874	13056.87
528.241	13178
528.607	13336.87
528.973	13426.36
529.339	13502.96
529.705	13606.92
530.071	13776.18
530.437	13803.3
530.803	13911.32
531.169	13987.7
531.535	14007.36
531.901	14072.44
532.267	14153.79
532.632	14286.67
532.998	14285.99
533.364	14503.39
533.73	14567.34
534.095	14657.74
534.461	14690.05
534.826	14754.91
535.192	14862.02
535.557	14950.61
535.923	14974.34
536.288	15097.95
536.653	15196.93
537.019	15132.3
537.384	15175.01
537.749	15344.72
538.114	15406.42
538.479	15422.01
538.845	15489.35
539.21	15600.31
539.575	15623.59
539.94	15606.41
540.305	15770.02
540.67	15761.21
541.034	15892.51
541.399	15931.83
541.764	16032.39
542.129	16079.17
542.494	16067.19
542.858	16203.23
543.223	16188.32
543.587	16303.34
543.952	16284.36
544.316	16408.88
544.681	16336.56
545.045	16422.66
545.41	16524.81
545.774	16582.88
546.138	16572.71
546.503	16663.56
546.867	16708.53
547.231	16790.34
547.595	16818.81
547.959	16956.66
548.324	17007.05
548.688	16999.37
549.052	17131.57
549.416	17136.54
549.779	17078.24
550.143	17190.78
550.507	17338.8
550.871	17299.25
551.235	17397.55
551.599	17524.1
551.962	17605.46
552.326	17598.45
552.689	17660.14
553.053	17565
553.417	17713.93
553.78	17907.59
554.143	17958.21
554.507	18033.24
554.87	18054.48
555.234	18218.32
555.597	18282.5
555.96	18280.47
556.323	18410.86
556.686	18561.36
557.05	18557.52
557.413	18698.31
557.776	18665.31
558.139	18894.23
558.502	18919.32
558.865	19106.21
559.228	19279.99
559.59	19267.11
559.953	19419.19
560.316	19554.78
560.679	19539.64
561.041	19686.76
561.404	19933.98
561.767	20185.73
562.129	20066.63
562.492	20227.76
562.854	20408.32
563.217	20464.14
563.579	20585.26
563.941	20771.25
564.304	20928.53
564.666	21192.03
565.028	21164.46
565.39	21375.53
565.753	21604.22
566.115	21739.81
566.477	21963.98
566.839	22014.83
567.201	22342.96
567.563	22341.6
567.925	22636.74
568.287	22716.96
568.648	22946.56
569.01	23111.07
569.372	23393.1
569.734	23445.3
570.095	23731.85
570.457	23875.8
570.819	23991.28
571.18	23986.76
571.542	24363.47
571.903	24489.12
572.265	24689.11
572.626	24896.11
572.987	25045.49
573.349	25176.56
573.71	25460.84
574.071	25622.19
574.432	25896.08
574.794	26142.63
575.155	26162.52
575.516	26267.37
575.877	26542.4
576.238	26607.7
576.599	26798.43
576.96	26901.93
577.32	27059.9
577.681	27234.13
578.042	27536.95
578.403	27528.13
578.763	27643.84
579.124	27741.46
579.485	28091.73
579.845	28189.58
580.206	28143.26
580.566	28402.01
580.927	28501.67
581.287	28662.79
581.648	28859.85
582.008	29150.24
582.368	29206.28
582.728	29340.29
583.089	29626.38
583.449	29793.16
583.809	29867.73
584.169	30147.72
584.529	30216.42
584.889	30700.7
585.249	30759.01
585.609	30850.98
585.969	31326
586.329	31345.43
586.688	31865.87
587.048	32052.53
587.408	32411.62
587.768	32496.82
588.127	32892.96
588.487	33214.99
588.846	33766.39
589.206	33804.8
589.565	34202.76
589.925	34736.98
590.284	35032.34
590.643	35565.89
591.003	35905.09
591.362	36474.56
591.721	36645.63
592.08	37054.89
592.44	37619.84
592.799	37968.54
593.158	38399.94
593.517	38786.14
593.876	39281.27
594.235	39620.7
594.593	40090.29
594.952	40538.19
595.311	41042.81
595.67	41605.5
596.029	42137.24
596.387	42487.51
596.746	43150.32
597.104	43370.2
597.463	43848.38
597.822	44475.26
598.18	44809.49
598.538	45142.58
598.897	45789.57
599.255	45840.87
599.613	46837
599.972	46995.64
600.33	47354.96
600.688	47735.96
601.046	48182.96
601.404	48731.87
601.762	49057.28
602.12	49397.39
602.478	49715.35
602.836	50070.36
603.194	50247.76
603.552	50587.19
603.91	50906.05
604.268	51354.62
604.625	51565.47
604.983	51977.66
605.341	51997.55
605.698	52524.76
606.056	52893.11
606.413	52915.26
606.771	53426.66
607.128	53569.48
607.485	53774.22
607.843	54003.59
608.2	54257.37
608.557	54541.66
608.914	54669.57
609.272	54982.55
609.629	55234.3
609.986	55471.35
610.343	55590.67
610.7	55907.72
611.057	56000.38
611.414	56088.74
611.771	56348.62
612.127	56504.09
612.484	56626.35
612.841	56848.49
613.198	56955.38
613.554	57019.56
613.911	57355.37
614.267	57481.47
614.624	57557.85
614.98	57679.88
615.337	57972.76
615.693	58007.56
616.05	58175.46
616.406	58363.48
616.762	58331.16
617.118	58480.31
617.475	58496.13
617.831	58753.98
618.187	58734.77
618.543	58863.35
618.899	59102.22
619.255	59102.9
619.611	59129.79
619.967	59295.21
620.323	59506.27
620.678	59405.71
621.034	59450.23
621.39	59508.76
621.746	59607.06
622.101	59922.76
622.457	59643.45
622.812	59901.07
623.168	59958.01
623.523	59936.77
623.879	60133.15
624.234	59985.36
624.589	60105.35
624.945	60181.06
625.3	60195.07
625.655	60249.31
626.01	60302.86
626.365	60336.08
626.72	60315.74
627.075	60229.42
627.43	60364.56
627.785	60403.2
628.14	60448.62
628.495	60423.31
628.85	60521.16
629.205	60405.69
629.559	60585.12
629.914	60449.53
630.269	60536.98
630.623	60412.92
630.978	60398.68
631.332	60575.4
631.687	60548.96
632.041	60568.85
632.396	60587.15
632.75	60555.96
633.104	60606.13
633.459	60477.55
633.813	60526.81
634.167	60442.52
634.521	60462.86
634.875	60510.54
635.229	60532.01
635.583	60425.12
635.937	60441.62
636.291	60403.2
636.645	60431.67
636.999	60301.06
637.352	60381.51
637.706	60274.16
638.06	60383.09
638.413	60268.97
638.767	60229.42
639.121	60263.99
639.474	60125.24
639.828	60148.52
640.181	60142.42
640.534	60171.57
640.888	60071.68
641.241	60014.74
641.594	59956.88
641.947	60054.73
642.301	59958.24
642.654	60047.5
643.007	60005.92
643.36	60022.42
643.713	59925.7
644.066	60038.92
644.419	59860.62
644.771	59562.09
645.124	59437.8
645.477	59344.47
645.83	59311.93
646.182	59290.91
646.535	59195.55
646.888	59295.21
647.24	59143.57
647.593	59372.27
647.945	59195.1
648.298	59102.67
648.65	58989.9
649.002	58933.63
649.355	58902.22
649.707	58801.21
650.059	58837.14
650.411	59133.85
650.763	59187.86
651.115	59653.84
651.467	59499.95
651.819	59538.59
652.171	59438.71
652.523	59331.36
652.875	59339.73
653.227	59185.6
653.578	59433.96
653.93	59368.65
654.282	59223.8
654.633	59140.41
654.985	59260.63
655.337	59247.07
655.688	59207.53
656.039	59276.68
656.391	59031.03
656.742	59116.23
657.094	59084.59
657.445	59140.18
657.796	59190.35
658.147	59068.32
658.498	59141.09
658.849	59149.9
659.2	59058.6
659.551	58974.99
659.902	59195.55
660.253	59006.63
660.604	59149.9
660.955	58999.4
661.306	59111.93
661.656	58963.24
662.007	59042.11
662.358	59069.22
662.708	59016.57
663.059	59051.15
663.409	58962.11
663.76	59026.74
664.11	59021.99
664.461	59040.07
664.811	59034.65
665.161	59087.75
665.511	58957.81
665.862	58969.57
666.212	58997.14
666.562	59040.3
666.912	58977.47
667.262	58900.64
667.612	58951.49
667.962	58993.52
668.312	58846.63
668.662	59034.2
669.011	58972.28
669.361	58931.15
669.711	58930.02
670.06	58825.16
670.41	58860.64
670.76	58855.22
671.109	59010.69
671.459	58860.42
671.808	58867.2
672.157	58959.85
672.507	58751.04
672.856	58787.65
673.205	58862
673.554	58962.33
673.904	58805.28
674.253	59006.4
674.602	58801.21
674.951	58469.92
675.3	58412.97
675.649	58829.23
675.998	58797.14
676.346	58824.48
676.695	58830.81
677.044	58723.24
677.393	58762.34
677.741	58785.84
678.09	58763.92
678.438	58675.56
678.787	58648.44
679.135	58711.72
679.484	58572.51
679.832	58712.17
680.181	58542.46
680.529	58592.63
680.877	58424.27
681.225	58519.18
681.573	58616.58
681.922	58498.39
682.27	58375.91
682.618	58369.36
682.966	58318.73
683.314	58400.09
683.661	58341.79
684.009	58242.58
684.357	58164.39
684.705	58052.75
685.053	58081.68
685.4	58034.22
685.748	57978.86
686.095	57926.43
686.443	57794.91
686.79	57807.79
687.138	57884.85
687.485	57838.75
687.832	57761.69
688.18	57628.36
688.527	57562.6
688.874	57528.02
689.221	57548.59
689.568	57404.41
689.915	57309.5
690.262	57399.44
690.609	57280.8
690.956	57201.7
691.303	57108.37
691.65	57053.91
691.997	57065.21
692.344	56905.66
692.69	56854.37
693.037	56889.17
693.383	56716.74
693.73	56784.99
694.077	56523.3
694.423	56529.18
694.769	56420.93
695.116	56387.03
695.462	56313.82
695.808	56185.23
696.155	56270.88
696.501	56046.7
696.847	56147.72
697.193	55955.86
697.539	55939.36
697.885	55775.52
698.231	55723.32
698.577	55661.86
698.923	55647.17
699.269	55378.25
699.614	55363.33
699.96	55337.8
700.306	55310.23
700.651	55218.03
700.997	55070.01
701.342	55061.65
701.688	54907.07
702.033	54883.8
702.379	54874.08
702.724	54755.21
703.069	54758.83
703.415	54449.68
703.76	54424.6
704.105	54452.17
704.45	54367.65
704.795	54233.87
705.14	54113.87
705.485	54135.12
705.83	53927.66
706.175	54081.56
706.52	53847.44
706.865	53739.65
707.209	53714.79
707.554	53691.74
707.899	53704.84
708.243	53540.78
708.588	53401.12
708.932	53337.62
709.277	53417.62
709.621	53274.35
709.966	53148.25
710.31	53148.25
710.654	52965.88
710.998	52974.69
711.342	53019.67
711.687	52785.1
712.031	52711.42
712.375	52669.17
712.719	52671.2
713.063	52519.34
713.407	52637.3
713.75	52444.31
714.094	52403.64
714.438	52242.96
714.782	52229.18
715.125	52023.53
715.469	52244.32
715.812	51906.25
716.156	51936.98
716.499	51879.36
716.843	52057.43
717.186	51718.46
717.53	51882.75
717.873	51752.13
718.216	51644.33
718.559	51589.87
718.902	51355.08
719.246	51374.74
719.589	51322.08
719.932	51196.89
720.275	51250.9
720.617	51115.31
720.96	51099.26
721.303	51071.92
721.646	51201.18
721.989	50930.23
722.331	50951.25
722.674	50921.87
723.016	50866.28
723.359	50734.98
723.701	50797.8
724.044	50562.33
724.386	50527.98
724.729	50710.12
725.071	50526.62
725.413	50526.17
725.755	50312.62
726.097	50274.65
726.439	50134.32
726.782	50155.11
727.124	50370.7
727.465	50177.93
727.807	50004.38
728.149	50021.33
728.491	49970.93
728.833	50042.34
729.175	49845.29
729.516	49755.8
729.858	49758.51
730.199	49787.43
730.541	49743.37
730.882	49594.22
731.224	49691.39
731.565	49537.72
731.906	49612.52
732.248	49620.66
732.589	49245.98
732.93	49285.3
733.271	49346.09
733.612	49187.9
733.953	49375.24
734.294	49226.32
734.635	49117.85
734.976	49243.95
735.317	48996.72
735.658	48943.61
735.999	48954.46
736.339	48931.41
736.68	48951.98
737.021	48860.9
737.361	48687.35
737.702	48900.68
738.042	48717.86
738.383	48777.52
738.723	48744.07
739.063	48643.06
739.404	48726.44
739.744	48578.65
740.084	48376.62
740.424	48519.22
740.764	48368.49
741.104	48505.43
741.444	48388.6
741.784	48331.2
742.124	48416.62
742.464	48199.45
742.804	48226.34
743.143	48130.75
743.483	48169.17
743.823	48032.23
744.162	47931.89
744.502	48088.04
744.841	47937.09
745.181	48047.59
745.52	47849.63
745.86	47841.95
746.199	47726.7
746.538	47690.09
746.877	47894.6
747.216	47806.02
747.556	47471.79
747.895	47685.57
748.234	47593.14
748.573	47434.05
748.911	47344.56
749.25	47277.9
749.589	47168.07
749.928	47302.3
750.267	47189.54
750.605	47125.13
750.944	47058.92
751.283	46983.21
751.621	47119.03
751.96	46760.39
752.298	46877.45
752.636	46824.8
752.975	46607.63
753.313	46570.12
753.651	46705.93
753.989	46387.75
754.327	46478.37
754.666	46156.12
755.004	46397.24
755.342	46345.94
755.679	46337.58
756.017	45988.89
756.355	46125.84
756.693	45999.74
757.031	45967.2
757.368	45738.05
757.706	45613.76
758.044	45531.27
758.381	45610.59
758.719	45413.09
759.056	45361.11
759.394	45194.79
759.731	44958.18
760.068	45080.66
760.405	44983.94
760.743	44695.59
761.08	44848.35
761.417	44702.14
761.754	44622.82
762.091	44369.05
762.428	44245.43
762.765	44168.15
763.102	44204.98
763.438	43899.45
763.775	43647.03
764.112	43658.1
764.449	43769.51
764.785	43418.79
765.122	43346.02
765.458	43170.88
765.795	43064.45
766.131	43027.84
766.467	42929.08
766.804	42611.58
767.14	42581.52
767.476	42384.92
767.812	42164.36
768.148	42393.73
768.485	42146.05
768.821	41858.38
769.157	41761.88
769.492	41669
769.828	41618.38
770.164	41272.4
770.5	41139.53
770.836	41124.84
771.171	40979.53
771.507	40851.17
771.842	40613.66
772.178	40453.44
772.513	40386.33
772.849	40390.84
773.184	40291.19
773.519	40142.49
773.855	39986.56
774.19	39784.98
774.525	39625.67
774.86	39578.44
775.195	39382.06
775.53	39282.63
775.865	39031.78
776.2	38918.12
776.535	38556.09
776.87	38619.59
777.205	38472.48
777.539	38229.77
777.874	38220.05
778.209	38002.88
778.543	37865.94
778.878	37703.68
779.212	37665.72
779.547	37396.35
779.881	37458.04
780.215	37180.31
780.55	37095.79
780.884	36808.11
781.218	36758.4
781.552	36757.72
781.886	36510.27
782.22	36418.75
782.554	36144.63
782.888	35852.43
783.222	35844.98
783.556	35640.69
783.889	35591.42
784.223	35399.11
784.557	35373.8
784.89	35395.5
785.224	35182.17
785.557	35056.97
785.891	34879.35
786.224	34775.17
786.558	34815.17
786.891	34511.9
787.224	34409.08
787.557	34266.03
787.891	34137.68
788.224	33917.12
788.557	33997.34
788.89	33939.71
789.223	33853.84
789.556	33610.46
789.888	33416.11
790.221	33315.32
790.554	33150.36
790.887	33126.18
791.219	32896.35
791.552	32850.25
791.884	32831.72
792.217	32692.52
792.549	32614.55
792.882	32411.17
793.214	32326.65
793.546	32305.63
793.879	32097.5
794.211	31797.85
794.543	32128.24
794.875	31935.25
795.207	31853.89
795.539	31609.15
795.871	31674.69
796.203	31545.2
796.535	31225.21
796.867	31275.38
797.198	31183.86
797.53	31036.97
797.862	30805.79
798.193	30853.02
798.525	30709.07
798.856	30769.63
799.188	30431.78
799.519	30320.83
799.85	30205.35
800.182	30293.48
800.513	30350.88
800.844	29855.08
801.175	30102.53
801.506	30129.19
801.837	29813.04
802.168	29746.38
802.499	29810.11
802.83	29481.75
803.161	29432.49
803.491	29395.2
803.822	29453.73
804.153	29126.06
804.483	29071.82
804.814	28844.93
805.145	28914.76
805.475	29053.06
805.805	28803.35
806.136	28655.33
806.466	28588.44
806.796	28593.87
807.126	28398.39
807.457	28369.69
807.787	28333.76
808.117	28326.3
808.447	28119.98
808.777	28174.67
809.107	27906.88
809.436	27848.58
809.766	27708.01
810.096	27877.95
810.426	27702.82
810.755	27636.15
811.085	27563.84
811.414	27550.73
811.744	27504.86
812.073	27532.2
812.403	27292.43
812.732	27118.43
813.061	27370.85
813.39	27052.66
813.719	27112.32
814.049	27098.54
814.378	27105.32
814.707	26826.23
815.036	26928.6
815.365	26774.93
815.693	26567.48
816.022	26514.37
816.351	26479.12
816.68	26393.02
817.008	26543.53
817.337	26319.58
817.665	26302.18
817.994	26260.37
818.322	26368.84
818.651	26202.29
818.979	25943.32
819.307	26054.72
819.636	25861.06
819.964	25889.76
820.292	25967.5
820.62	25831.68
820.948	25989.42
821.276	25974.95
821.604	25808.63
821.932	25936.76
822.259	25838.69
822.587	25815.18
822.915	25756.65
823.243	25924.78
823.57	25748.97
823.898	25957.1
824.225	25737.67
824.553	25661.97
824.88	25799.36
825.207	25845.69
825.535	25780.83
825.862	25839.14
826.189	25715.52
826.516	25978.79
826.843	25863.54
827.17	25888.63
827.497	25922.3
827.824	25888.85
828.151	25991.22
828.478	25711
828.805	26043.88
829.131	26013.37
829.458	25890.44
829.785	25649.99
830.111	25781.96
830.438	25882.75
830.764	25845.69
831.09	25807.27
831.417	25713.04
831.743	25856.99
832.069	25839.14
832.395	25617.22
832.722	25780.38
833.048	25686.37
833.374	25746.94
833.7	25586.94
834.026	25702.64
834.351	25524.12
834.677	25699.93
835.003	25521.41
835.329	25534.06
835.654	25539.26
835.98	25423.78
836.306	25547.17
836.631	25423.33
836.956	25566.38
837.282	25581.52
837.607	25377.23
837.932	25426.04
838.258	25407.96
838.583	25260.4
838.908	25093.85
839.233	25221.07
839.558	25077.58
839.883	25078.7
840.208	24946.51
840.533	24968.2
840.858	24987.18
841.182	24837.13
841.507	24876.9
841.832	24722.78
842.156	24778.83
842.481	24785.15
842.805	24663.8
843.13	24545.16
843.454	24593.52
843.778	24412.96
844.103	24441.89
844.427	24388.33
844.751	24489.12
845.075	24327.54
845.399	24304.71
845.723	24177.03
846.047	24260.42
846.371	23983.59
846.695	23903.14
847.019	23787.44
847.343	23739.08
847.666	23660.21
847.99	23504.96
848.313	23465.41
848.637	23433.32
848.96	23287.79
849.284	23407.11
849.607	23114.69
849.931	23081.02
850.254	22944.75
850.577	22739.56
850.9	22677.64
851.223	22620.01
851.546	22539.34
851.869	22474.03
852.192	22559.22
852.515	22111.33
852.838	22235.39
853.161	22222.28
853.483	21935.74
853.806	21950.43
854.129	21888.73
854.451	21944.55
854.774	21656.87
855.096	21647.16
855.419	21460.72
855.741	21548.18
856.063	21501.4
856.385	21347.96
856.708	21345.24
857.03	21269.54
857.352	21175.76
857.674	21209.65
857.996	20955.42
858.318	20957.23
858.64	20932.6
858.961	20931.02
859.283	20903.45
859.605	20725.6
859.926	20687.18
860.248	20754.3
860.57	20506.17
860.891	20587.98
861.212	20559.73
861.534	20538.71
861.855	20384.59
862.176	20387.3
862.498	20414.42
862.819	20337.59
863.14	20242.67
863.461	20267.08
863.782	20161.09
864.103	20137.14
864.424	20068.44
864.745	20064.83
865.065	19987.54
865.386	19876.13
865.707	20004.71
866.027	19918.84
866.348	19939.63
866.668	19883.14
866.989	19811.95
867.309	19690.15
867.63	19693.08
867.95	19752.29
868.27	19605.4
868.59	19672.52
868.91	19609.24
869.23	19490.6
869.55	19480.89
869.87	19536.93
870.19	19376.48
870.51	19446.99
870.83	19375.8
871.15	19245.64
871.469	19239.31
871.789	19346.65
872.109	19190.72
872.428	19176.94
872.748	19231.85
873.067	19153.21
873.386	19174.23
873.706	19129.71
874.025	19114.57
874.344	19054.68
874.663	18952.76
874.982	18936.27
875.301	18873.67
875.62	18862.82
875.939	18745.31
876.258	18862.6
876.577	18735.14
876.896	18806.55
877.214	18706.9
877.533	18737.85
877.852	18790.51
878.17	18676.61
878.489	18685.2
878.807	18595.71
879.125	18620.12
879.444	18546.22
879.762	18468.03
880.08	18562.49
880.398	18398.43
880.716	18481.14
881.034	18342.61
881.352	18441.14
881.67	18298.77
881.988	18296.96
882.306	18214.7
882.624	18221.26
882.941	18071.43
883.259	18081.83
883.577	18039.79
883.894	18024.43
884.212	17987.82
884.529	17943.75
884.846	17889.74
885.164	17750.76
885.481	17828.73
885.798	17812.68
886.115	17732.23
886.432	17813.36
886.75	17810.65
887.067	17688.62
887.383	17608.84
887.7	17572.24
888.017	17333.82
888.334	17401.62
888.651	17387.61
888.967	17398.23
889.284	17332.24
889.6	17234.84
889.917	17167.73
890.233	17251.79
890.55	17068.52
890.866	17106.71
891.182	17088.63
891.498	17040.5
891.815	16946.72
892.131	16834.85
892.447	16878.69
892.763	16695.2
893.079	16729.77
893.395	16658.81
893.71	16684.8
894.026	16613.84
894.342	16550.12
894.657	16513.05
894.973	16436.45
895.289	16397.35
895.604	16307.41
895.92	16233.29
896.235	16260.86
896.55	16103.8
896.865	16151.71
897.181	16082.56
897.496	16063.12
897.811	15991.71
898.126	15975.89
898.441	15843.92
898.756	15902.22
899.071	15748.33
899.386	15748.55
899.7	15565.28
900.015	15498.39
900.33	15378.17
900.644	15381.11
900.959	15373.65
901.273	15274.22
901.588	15270.38
901.902	15217.27
902.216	15184.95
902.531	15150.15
902.845	15057.73
903.159	14970.72
903.473	14942.93
903.787	14903.15
904.101	14757.62
904.415	14848.69
904.729	14728.02
905.042	14694.12
905.356	14608.25
905.67	14592.43
905.984	14517.17
906.297	14455.48
906.611	14432.66
906.924	14420.68
907.237	14359.89
907.551	14252.77
907.864	14171.2
908.177	14208.26
908.491	14156.73
908.804	14050.97
909.117	13963.97
909.43	13860.69
909.743	13869.28
910.056	13807.36
910.368	13724.88
910.681	13705.67
910.994	13617.76
911.307	13639.91
911.619	13464.1
911.932	13486.69
912.244	13390.65
912.557	13353.14
912.869	13317.66
913.181	13246.93
913.494	13181.62
913.806	13099.36
914.118	13031.56
914.43	13008.74
914.742	13006.03
915.054	12860.27
915.366	12845.81
915.678	12829.76
915.99	12821.4
916.302	12648.98
916.613	12627.28
916.925	12654.17
917.236	12524.01
917.548	12539.6
917.859	12528.53
918.171	12328.53
918.482	12303.9
918.794	12286.95
919.105	12223
919.416	12208.99
919.727	12111.14
920.038	12113.4
920.349	11988.43
920.66	11890.13
920.971	11907.07
921.282	11957.24
921.593	11803.12
921.903	11730.13
922.214	11703.69
922.525	11606.29
922.835	11707.53
923.146	11536.91
923.456	11472.06
923.767	11499.18
924.077	11444.26
924.387	11397.03
924.697	11312.51
925.008	11302.8
925.318	11236.81
925.628	11267.09
925.938	11226.87
926.248	11045.4
926.558	10949.58
926.867	10926.31
927.177	10896.71
927.487	10903.48
927.796	10849.47
928.106	10795.46
928.416	10808.8
928.725	10719.76
929.034	10697.84
929.344	10656.94
929.653	10582.59
929.962	10544.17
930.271	10527
930.581	10404.97
930.89	10435.7
931.199	10286.55
931.508	10293.78
931.817	10258.53
932.125	10279.09
932.434	10196.84
932.743	10046.11
933.051	10105.54
933.36	9999.33
933.669	10019.44
933.977	9932.66
934.286	9939.44
934.594	9893.34
934.902	9777.19
935.21	9711.43
935.519	9726.11
935.827	9715.27
936.135	9663.29
936.443	9510.3
936.751	9575.61
937.059	9523.41
937.367	9405.67
937.674	9436.86
937.982	9399.8
938.29	9341.04
938.597	9285.45
938.905	9225.56
939.213	9193.02
939.52	9150.31
939.827	9223.98
940.135	9116.86
940.442	9048.17
940.749	9060.14
941.056	9042.97
941.363	8912.58
941.67	8906.7
941.977	8849.98
942.284	8821.28
942.591	8799.13
942.898	8817.44
943.205	8745.12
943.511	8723.65
943.818	8681.85
944.125	8583.32
944.431	8549.2
944.738	8535.86
945.044	8551.46
945.35	8433.49
945.657	8438.24
945.963	8393.95
946.269	8338.58
946.575	8357.34
946.881	8247.06
947.187	8246.38
947.493	8188.75
947.799	8152.14
948.105	8093.16
948.41	8066.27
948.716	8034.86
949.022	7989.21
949.327	8001.87
949.633	7949.89
949.938	7930.23
950.244	7931.81
950.549	7834.19
950.854	7742.44
951.16	7716.22
951.465	7758.26
951.77	7631.48
952.075	7646.17
952.38	7603.23
952.685	7557.81
952.99	7563.91
953.294	7538.6
953.599	7515.1
953.904	7377.25
954.209	7398.49
954.513	7406.18
954.818	7384.48
955.122	7426.97
955.426	7303.81
955.731	7226.75
956.035	7244.15
956.339	7134.54
956.643	7154.66
956.948	7107.43
957.252	7049.57
957.556	7049.8
957.86	6981.33
958.163	7023.36
958.467	7025.85
958.771	6987.66
959.075	6935.68
959.378	6864.72
959.682	6838.05
959.985	6762.12
960.289	6773.65
960.592	6725.06
960.896	6674.44
961.199	6752.18
961.502	6640.55
961.805	6605.29
962.108	6558.51
962.411	6578.63
962.714	6476.71
963.017	6433.32
963.32	6522.36
963.623	6462.25
963.926	6429.93
964.228	6377.5
964.531	6358.07
964.833	6368.91
965.136	6288.92
965.438	6281.23
965.741	6242.36
966.043	6238.97
966.345	6155.59
966.648	6158.3
966.95	6148.58
967.252	6114.01
967.554	6073.78
967.856	6078.07
968.158	6006.89
968.46	6020
968.761	5967.34
969.063	5950.85
969.365	5904.52
969.666	5921.47
969.968	5823.17
970.269	5863.17
970.571	5820.45
970.872	5716.95
971.174	5767.12
971.475	5727.58
971.776	5696.39
972.077	5643.06
972.378	5605.54
972.679	5677.63
972.98	5640.35
973.281	5622.27
973.582	5604.64
973.883	5515.6
974.183	5507.47
974.484	5472.67
974.785	5447.36
975.085	5435.61
975.386	5436.06
975.686	5389.51
975.986	5347.7
976.287	5306.12
976.587	5300.69
976.887	5311.99
977.187	5266.8
977.487	5306.34
977.787	5202.62
978.087	5215.72
978.387	5174.14
978.687	5080.13
978.987	5074.49
979.286	5107.25
979.586	5056.41
979.885	5017.99
980.185	5002.4
980.484	4963.75
980.784	4960.14
981.083	4953.81
981.382	4952.91
981.682	4938.44
981.981	4890.99
982.28	4887.82
982.579	4845.56
982.878	4864.1
983.177	4783.19
983.475	4800.59
983.774	4728.28
984.073	4677.89
984.372	4667.72
984.67	4715.62
984.969	4661.61
985.267	4679.92
985.566	4602.41
985.864	4584.1
986.162	4551.34
986.461	4582.75
986.759	4526.25
987.057	4466.14
987.355	4500.04
987.653	4496.65
987.951	4459.81
988.249	4453.94
988.547	4411.9
988.844	4417.78
989.142	4386.37
989.44	4371.45
989.737	4333.49
990.035	4299.59
990.332	4310.89
990.63	4202.64
990.927	4256.88
991.224	4229.31
991.521	4236.09
991.819	4223.89
992.116	4145.92
992.413	4161.74
992.71	4090.78
993.006	4097.56
993.303	4053.04
993.6	4126.04
993.897	4067.96
994.193	4035.19
994.49	3945.48
994.787	3935.98
995.083	3929.43
995.379	3945.93
995.676	3918.13
995.972	3908.64
996.268	3897.34
996.565	3859.6
996.861	3835.65
997.157	3800.17
997.453	3776.67
997.749	3766.27
998.044	3751.58
998.34	3735.31
998.636	3705.26
998.932	3723.79
999.227	3645.14
999.523	3676.56
999.818	3620.29
1000.114	3627.29
1000.409	3610.34
1000.704	3593.17
1001	3524.02
1001.295	3532.83
1001.59	3536.9
1001.885	3480.4
1002.18	3390.24
1002.475	3434.75
1002.77	3442.66
1003.065	3427.3
1003.359	3415.55
1003.654	3377.81
1003.949	3362.67
1004.243	3353.63
1004.538	3308.43
1004.832	3281.31
1005.127	3309.11
1005.421	3253.74
1005.715	3242.89
1006.009	3253.74
1006.304	3213.74
1006.598	3174.65
1006.892	3151.6
1007.186	3142.33
1007.48	3107.76
1007.773	3106.4
1008.067	3069.34
1008.361	3082
1008.655	3045.39
1008.948	3038.38
1009.242	3038.61
1009.535	3011.71
1009.829	2977.59
1010.122	2990.7
1010.415	2962.9
1010.708	2988.66
1011.001	2904.82
1011.295	2873.87
1011.588	2910.7
1011.881	2831.38
1012.173	2820.08
1012.466	2814.88
1012.759	2836.58
1013.052	2772.17
1013.344	2790.7
1013.637	2745.96
1013.93	2730.14
1014.222	2735.11
1014.514	2708.67
1014.807	2668.22
1015.099	2662.8
1015.391	2632.74
1015.683	2603.59
1015.976	2616.92
1016.268	2625.96
1016.56	2599.07
1016.851	2574.21
1017.143	2536.47
1017.435	2529.47
1017.727	2474.33
1018.018	2462.8
1018.31	2488.56
1018.602	2460.32
1018.893	2416.48
1019.185	2451.5
1019.476	2423.26
1019.767	2421.67
1020.058	2393.65
1020.35	2359.98
1020.641	2308
1020.932	2284.73
1021.223	2299.42
1021.514	2289.47
1021.804	2272.75
1022.095	2260.1
1022.386	2264.39
1022.677	2228.46
1022.967	2230.72
1023.258	2182.58
1023.548	2185.97
1023.839	2152.98
1024.129	2151.62
1024.419	2154.79
1024.709	2091.29
1025	2107.78
1025.29	2095.81
1025.58	2072.53
1025.87	2086.99
1026.16	2012.19
1026.449	2015.13
1026.739	2021.46
1027.029	2028.46
1027.319	1982.14
1027.608	1995.24
1027.898	2000.67
1028.187	1936.26
1028.477	1936.04
1028.766	1919.09
1029.055	1857.39
1029.344	1904.4
1029.634	1894
1029.923	1846.1
1030.212	1826.21
1030.501	1839.09
1030.79	1804.97
1031.078	1813.78
1031.367	1790.5
1031.656	1763.61
1031.945	1753.22
1032.233	1743.95
1032.522	1760.67
1032.81	1729.04
1033.099	1717.29
1033.387	1720.9
1033.675	1691.52
1033.963	1699.21
1034.251	1667.8
1034.54	1668.25
1034.828	1649.94
1035.116	1606.78
1035.403	1624.86
1035.691	1615.14
1035.979	1597.74
1036.267	1618.3
1036.554	1575.82
1036.842	1559.78
1037.129	1561.81
1037.417	1529.95
1037.704	1515.93
1037.992	1524.07
1038.279	1524.3
1038.566	1480
1038.853	1480
1039.14	1480
