Data from 214_FLMS001491_008.txt Node
Date: Thu Apr 19 16:36:52 BST 2018
User: hsy
Spectrometer: FLMS00149
Trigger mode: 0
Integration Time (sec): 1.000000E-2
Scans to average: 10
Electric dark correction enabled: true
Nonlinearity correction enabled: false
Boxcar width: 0
XAxis mode: Wavelengths
Number of Pixels in Spectrum: 2048
>>>>>Begin Spectral Data<<<<<
341.393	-11.86
341.776	-11.86
342.16	-11.86
342.543	-62.03
342.927	-63.39
343.31	-58.87
343.693	-65.87
344.077	-82.6
344.46	-55.03
344.843	-46.44
345.226	-55.48
345.61	-53.22
345.993	-17.51
346.376	-7.34
346.759	2.37
347.142	38.98
347.525	49.38
347.908	64.74
348.291	77.63
348.674	103.61
349.057	105.65
349.44	134.12
349.823	130.73
350.206	162.59
350.588	211.41
350.971	255.7
351.354	252.99
351.737	272.87
352.119	293.89
352.502	300.22
352.884	306.09
353.267	333.44
353.65	322.59
354.032	308.58
354.414	335.25
354.797	335.47
355.179	349.71
355.562	380.89
355.944	374.79
356.326	352.42
356.709	370.72
357.091	377.28
357.473	366.66
357.855	384.51
358.238	401.68
358.62	404.4
359.002	361.01
359.384	384.28
359.766	386.77
360.148	393.1
360.53	363.95
360.912	372.08
361.294	387
361.676	401.01
362.057	379.31
362.439	398.29
362.821	375.47
363.203	369.82
363.584	385.87
363.966	386.32
364.348	355.58
364.729	355.13
365.111	364.85
365.493	360.78
365.874	375.24
366.256	370.27
366.637	339.77
367.019	373.44
367.4	390.39
367.781	379.76
368.163	398.07
368.544	365.98
368.925	355.58
369.306	364.4
369.688	366.21
370.069	388.13
370.45	380.44
370.831	386.32
371.212	380.22
371.593	373.66
371.974	383.83
372.355	368.24
372.736	383.38
373.117	366.88
373.498	377.96
373.879	373.44
374.26	385.64
374.641	390.84
375.021	385.19
375.402	384.51
375.783	401.91
376.163	413.66
376.544	409.14
376.925	394
377.305	392.87
377.686	391.52
378.066	407.33
378.447	439.65
378.827	410.05
379.208	399.65
379.588	399.2
379.968	410.27
380.349	429.48
380.729	424.96
381.109	431.29
381.489	423.15
381.87	425.41
382.25	422.47
382.63	449.37
383.01	433.1
383.39	426.09
383.77	436.71
384.15	434
384.53	455.02
384.91	428.58
385.29	454.79
385.67	436.94
386.049	459.08
386.429	452.53
386.809	462.02
387.189	454.56
387.568	473.55
387.948	476.48
388.328	460.67
388.707	493.43
389.087	488.01
389.466	481
389.846	472.64
390.225	513.32
390.605	503.15
390.984	467.67
391.363	492.08
391.743	514.22
392.122	506.99
392.501	491.63
392.881	502.47
393.26	513.77
393.639	521
394.018	523.26
394.397	525.75
394.776	537.27
395.155	553.32
395.534	556.26
395.913	533.88
396.292	532.75
396.671	552.87
397.05	538.18
397.429	578.18
397.808	555.8
398.186	554.9
398.565	555.35
398.944	562.58
399.323	578.4
399.701	560.32
400.08	563.71
400.458	559.87
400.837	595.13
401.215	599.65
401.594	576.14
401.972	597.39
402.351	595.58
402.729	603.03
403.107	638.97
403.486	606.2
403.864	620.66
404.242	614.79
404.62	634.22
404.999	622.92
405.377	627.89
405.755	648.68
406.133	664.5
406.511	646.65
406.889	684.39
407.267	680.55
407.645	690.49
408.023	685.52
408.401	692.07
408.779	735.23
409.156	726.2
409.534	729.59
409.912	737.49
410.29	756.48
410.667	735.69
411.045	764.84
411.422	753.31
411.8	759.87
412.178	779.08
412.555	783.37
412.933	795.35
413.31	797.15
413.687	833.31
414.065	822.92
414.442	830.6
414.819	844.38
415.197	823.37
415.574	863.37
415.951	870.37
416.328	859.75
416.705	876.93
417.082	857.27
417.46	895.23
417.837	902.46
418.214	907.43
418.591	919.18
418.967	928.45
419.344	925.29
419.721	951.27
420.098	945.17
420.475	952.86
420.852	978.17
421.228	953.76
421.605	997.83
421.982	963.7
422.358	1001.89
422.735	1019.07
423.111	1012.97
423.488	1048.9
423.864	1024.27
424.241	1048.67
424.617	1050.03
424.994	1041.22
425.37	1069.69
425.746	1087.09
426.123	1088.9
426.499	1103.13
426.875	1114.43
427.251	1118.28
427.627	1164.38
428.003	1128.9
428.379	1200.76
428.756	1165.96
429.132	1183.36
429.507	1218.84
429.883	1199.63
430.259	1222.45
430.635	1258.84
431.011	1279.85
431.387	1290.7
431.763	1289.34
432.138	1296.8
432.514	1327.31
432.89	1329.34
433.265	1380.87
433.641	1359.17
434.016	1388.33
434.392	1412.96
434.767	1434.88
435.143	1429.68
435.518	1418.61
435.894	1448.66
436.269	1458.38
436.644	1496.12
437.02	1523.69
437.395	1511.03
437.77	1518.94
438.145	1544.93
438.52	1548.09
438.895	1579.73
439.271	1576.57
439.646	1593.07
440.021	1632.61
440.395	1620.86
440.77	1608.88
441.145	1632.61
441.52	1648.66
441.895	1677.36
442.27	1684.59
442.645	1677.13
443.019	1718.94
443.394	1731.59
443.769	1733.85
444.143	1737.02
444.518	1751.93
444.892	1715.32
445.267	1756.68
445.641	1774.98
446.016	1766.39
446.39	1811.82
446.764	1799.61
447.139	1813.4
447.513	1813.62
447.887	1835.09
448.262	1827.64
448.636	1825.38
449.01	1866.96
449.384	1880.97
449.758	1899.72
450.132	1914.64
450.506	1937.01
450.88	1947.41
451.254	1932.94
451.628	1974.07
452.002	1977.46
452.376	2023.34
452.75	2036.9
453.123	2019.72
453.497	2037.57
453.871	2077.57
454.244	2118.7
454.618	2125.48
454.992	2155.54
455.365	2156.21
455.739	2191.92
456.112	2221.98
456.486	2236.89
456.859	2250.22
457.232	2273.5
457.606	2312.59
457.979	2325.48
458.352	2412.25
458.725	2432.82
459.099	2411.35
459.472	2431.69
459.845	2480.73
460.218	2475.53
460.591	2501.52
460.964	2535.87
461.337	2565.02
461.71	2607.5
462.083	2631.68
462.456	2646.6
462.829	2648.63
463.201	2685.24
463.574	2707.16
463.947	2723.88
464.32	2749.19
464.692	2779.25
465.065	2781.28
465.438	2831.9
465.81	2834.39
466.183	2870.55
466.555	2914.16
466.928	2934.95
467.3	2945.8
467.672	2995.51
468.045	3030.32
468.417	3078.68
468.789	3077.09
469.161	3095.85
469.534	3144.21
469.906	3198.22
470.278	3228.73
470.65	3221.27
471.022	3301.95
471.394	3376.3
471.766	3349.86
472.138	3385.33
472.51	3469.85
472.882	3494.26
473.253	3492.68
473.625	3587.14
473.997	3663.52
474.369	3668.72
474.74	3735.83
475.112	3725.21
475.484	3830.97
475.855	3863.74
476.227	3874.14
476.598	3983.51
476.97	3984.19
477.341	4073.9
477.713	4113.23
478.084	4167.46
478.455	4255.59
478.827	4282.94
479.198	4406.78
479.569	4393.67
479.94	4520.22
480.311	4549.6
480.682	4629.82
481.053	4722.25
481.424	4804.05
481.795	4830.72
482.166	4909.36
482.537	4918.4
482.908	5062.8
483.279	5101
483.65	5223.7
484.021	5324.94
484.391	5321.55
484.762	5401.55
485.133	5466.18
485.503	5570.36
485.874	5647.2
486.244	5702.56
486.615	5847.42
486.985	5849.45
487.356	5936.68
487.726	6039.28
488.097	6104.59
488.467	6160.18
488.837	6247.18
489.207	6330.57
489.578	6426.84
489.948	6515.2
490.318	6646.49
490.688	6622.09
491.058	6707.73
491.428	6754.06
491.798	6829.76
492.168	6961.06
492.538	7023.43
492.908	7073.83
493.278	7214.84
493.648	7213.48
494.017	7302.97
494.387	7358.34
494.757	7414.83
495.126	7473.36
495.496	7540.03
495.866	7591.33
496.235	7594.04
496.605	7696.63
496.974	7770.98
497.344	7886.69
497.713	7882.17
498.082	7940.92
498.452	8021.82
498.821	8042.16
499.19	8056.62
499.559	8100.01
499.928	8200.58
500.298	8232.21
500.667	8239.67
501.036	8256.85
501.405	8290.06
501.774	8390.85
502.143	8415.94
502.512	8444.64
502.88	8559.89
503.249	8531.64
503.618	8635.14
503.987	8670.17
504.356	8690.28
504.724	8763.27
505.093	8720.34
505.462	8737.06
505.83	8830.16
506.199	8855.25
506.567	8999.42
506.936	8990.39
507.304	9049.14
507.672	9046.43
508.041	9090.95
508.409	9162.36
508.777	9263.82
509.145	9324.61
509.514	9368.23
509.882	9344.5
510.25	9382.24
510.618	9460.88
510.986	9493.87
511.354	9588.34
511.722	9636.92
512.09	9681.89
512.458	9718.5
512.826	9824.04
513.193	9823.81
513.561	9895.45
513.929	9979.74
514.297	10050.02
514.664	10069
515.032	10117.81
515.4	10221.09
515.767	10224.25
516.135	10336.11
516.502	10270.13
516.869	10419.5
517.237	10553.73
517.604	10512.38
517.972	10612.72
518.339	10678.7
518.706	10771.58
519.073	10785.82
519.44	10832.6
519.808	10993.72
520.175	11035.98
520.542	11176.54
520.909	11207.73
521.276	11246.14
521.643	11415.41
522.009	11401.4
522.376	11526.14
522.743	11620.82
523.11	11694.72
523.477	11942.4
523.843	11952.34
524.21	12128.83
524.577	12156.63
524.943	12245.89
525.31	12355.49
525.676	12476.4
526.043	12609.05
526.409	12698.08
526.776	12817.86
527.142	12804.52
527.508	13036.15
527.874	13070.5
528.241	13174
528.607	13294.45
528.973	13363.83
529.339	13397.05
529.705	13541.9
530.071	13756.59
530.437	13767.43
530.803	13849.24
531.169	13925.4
531.535	14010.82
531.901	14001.1
532.267	14166.07
532.632	14197.03
532.998	14377.59
533.364	14464.82
533.73	14513.18
534.095	14626.62
534.461	14703.23
534.826	14768.09
535.192	14792.94
535.557	14936.44
535.923	14954.97
536.288	15015.76
536.653	15202.88
537.019	15244.23
537.384	15291.01
537.749	15368.75
538.114	15391.57
538.479	15450.55
538.845	15568.29
539.21	15472.25
539.575	15652.13
539.94	15656.42
540.305	15757.89
540.67	15718.34
541.034	15843.09
541.399	15829.08
541.764	16026.81
542.129	15956.53
542.494	16028.62
542.858	16055.06
543.223	16145.9
543.587	16197.43
543.952	16217.99
544.316	16337.08
544.681	16372.56
545.045	16394.94
545.41	16479.45
545.774	16541.82
546.138	16536.85
546.503	16645.78
546.867	16674.48
547.231	16804.19
547.595	16897.97
547.959	16888.93
548.324	16956.28
548.688	17050.96
549.052	17042.15
549.416	16986.78
549.779	17184.29
550.143	17212.09
550.507	17236.72
550.871	17285.53
551.235	17390.62
551.599	17648.46
551.962	17600.55
552.326	17561.46
552.689	17798.06
553.053	17738.86
553.417	17816.37
553.78	18062.46
554.143	18055.01
554.507	18040.54
554.87	18185.85
555.234	18419.06
555.597	18265.62
555.96	18393.3
556.323	18544.26
556.686	18555.56
557.05	18586.97
557.413	18763.01
557.776	18793.52
558.139	18958.94
558.502	19081.87
558.865	19057.01
559.228	19222.88
559.59	19389.21
559.953	19428.53
560.316	19671.23
560.679	19706.94
561.041	19825.81
561.404	20011.11
561.767	20126.82
562.129	20140.15
562.492	20515.96
562.854	20545.79
563.217	20560.02
563.579	20755.95
563.941	20967.92
564.304	21128.37
564.666	21329.27
565.028	21344.18
565.39	21544.63
565.753	21841.35
566.115	21796.83
566.477	21981.46
566.839	22221.22
567.201	22430.94
567.563	22463.93
567.925	22864.37
568.287	22907.31
568.648	23112.95
569.01	23250.35
569.372	23501.64
569.734	23642.66
570.095	23950.67
570.457	24126.26
570.819	24235.63
571.18	24323.77
571.542	24728.73
571.903	24885.56
572.265	24987.48
572.626	25227.02
572.987	25297.07
573.349	25510.18
573.71	25777.74
574.071	25929.37
574.432	26110.61
574.794	26480.77
575.155	26516.25
575.516	26535.91
575.877	26717.83
576.238	26932.06
576.599	27190.58
576.96	27238.04
577.32	27504.25
577.681	27474.87
578.042	27769.78
578.403	27892.03
578.763	27946.27
579.124	28009.77
579.485	28426.26
579.845	28493.15
580.206	28487.5
580.566	28686.36
580.927	28746.93
581.287	29050.2
581.648	29186.69
582.008	29300.36
582.368	29562.73
582.728	29786.45
583.089	29818.99
583.449	29991.41
583.809	30156.16
584.169	30285.64
584.529	30379.88
584.889	30807.66
585.249	30889.02
585.609	30919.75
585.969	31433.86
586.329	31558.38
586.688	31873.85
587.048	31976.45
587.408	32342.09
587.768	32643.55
588.127	32883.09
588.487	33154.04
588.846	33632.22
589.206	33822.27
589.565	34084.87
589.925	34709.26
590.284	34912.87
590.643	35257.27
591.003	35654.77
591.362	36227.41
591.721	36554.86
592.08	36895.87
592.44	37417.89
592.799	37752.79
593.158	38084.76
593.517	38422.15
593.876	39038.18
594.235	39456.93
594.593	39843.36
594.952	40357.47
595.311	40694.86
595.67	41389.08
596.029	41921.04
596.387	42337.98
596.746	42868.59
597.104	43106.1
597.463	43429.93
597.822	44126.18
598.18	44328.66
598.538	44732.27
598.897	45459.03
599.255	45581.29
599.613	46441.6
599.972	46632.33
600.33	47054.47
600.688	47337.63
601.046	47915.24
601.404	48552.73
601.762	48749.34
602.12	49134.41
602.478	49488.53
602.836	49797.9
603.194	49953.83
603.552	50390.43
603.91	50659.12
604.268	51000.81
604.625	51378.65
604.983	51685.31
605.341	51863.38
605.698	52344.95
606.056	52628.11
606.413	52679.41
606.771	53200.75
607.128	53324.81
607.485	53409.1
607.843	53718.25
608.2	54149.2
608.557	54363.88
608.914	54535.63
609.272	54792.57
609.629	55123.18
609.986	55300.81
610.343	55385.32
610.7	55768.36
611.057	55848.81
611.414	55958.87
611.771	56150.5
612.127	56429.82
612.484	56544.61
612.841	56631.84
613.198	56732.18
613.554	56872.97
613.911	57183.92
614.267	57303.92
614.624	57423.24
614.98	57638.37
615.337	57897.8
615.693	57878.14
616.05	57973.05
616.406	58157.68
616.762	58131.92
617.118	58317.68
617.475	58362.19
617.831	58591.79
618.187	58642.64
618.543	58779.58
618.899	58980.26
619.255	58915.4
619.611	59015.06
619.967	59219.35
620.323	59317.65
620.678	59293.24
621.034	59356.97
621.39	59438.1
621.746	59478.32
622.101	59757.86
622.457	59610.3
622.812	59774.36
623.168	59852.32
623.523	59907.69
623.879	60017.07
624.234	59977.52
624.589	60038.31
624.945	60100.68
625.3	60182.03
625.655	60191.07
626.01	60220.22
626.365	60220.45
626.72	60235.37
627.075	60248.02
627.43	60325.08
627.785	60324.18
628.14	60411.41
628.495	60382.25
628.85	60483.95
629.205	60452.76
629.559	60576.6
629.914	60405.98
630.269	60434
630.623	60396.49
630.978	60368.47
631.332	60516.71
631.687	60505.87
632.041	60474.68
632.396	60494.12
632.75	60451.63
633.104	60523.72
633.459	60393.78
633.813	60405.76
634.167	60368.02
634.521	60397.85
634.875	60454.57
635.229	60385.42
635.583	60257.51
635.937	60288.7
636.291	60356.04
636.645	60273.78
636.999	60190.17
637.352	60326.44
637.706	60123.73
638.06	60300.45
638.413	60172.54
638.767	60096.39
639.121	60178.64
639.474	60065.65
639.828	60118.98
640.181	60102.71
640.534	60150.62
640.888	60008.48
641.241	59920.12
641.594	59961.47
641.947	60069.49
642.301	59891.65
642.654	59988.82
643.007	59878.31
643.36	59966.45
643.713	59845.55
644.066	59940.91
644.419	59787.24
644.771	59509.73
645.124	59317.88
645.477	59256.63
645.83	59209.63
646.182	59220.25
646.535	59124.89
646.888	59128.95
647.24	59025.91
647.593	59262.51
647.945	59097.09
648.298	59002.18
648.65	58972.12
649.002	58865.68
649.355	58821.17
649.707	58751.34
650.059	58746.82
650.411	59073.81
650.763	59213.25
651.115	59519.9
651.467	59442.84
651.819	59416.86
652.171	59342.73
652.523	59272.9
652.875	59339.57
653.227	59210.99
653.578	59443.3
653.93	59257.99
654.282	59211.66
654.633	59138.45
654.985	59209.63
655.337	59240.14
655.688	59170.53
656.039	59247.37
656.391	59042.63
656.742	59118.33
657.094	59117.2
657.445	59192.68
657.796	59163.98
658.147	59048.28
658.498	59099.8
658.849	59095.51
659.2	59029.07
659.551	58963.08
659.902	59140.03
660.253	59126.02
660.604	59129.18
660.955	59018.22
661.306	59088.05
661.656	58997.88
662.007	58993.36
662.358	59047.6
662.708	59068.16
663.059	58980.94
663.409	58865.23
663.76	59028.62
664.11	58999.47
664.461	58992.91
664.811	59019.8
665.161	58999.01
665.511	58883.76
665.862	58992.91
666.212	59029.52
666.562	59024.1
666.912	59025
667.262	58926.02
667.612	58985.23
667.962	58990.65
668.312	58913.37
668.662	58988.39
669.011	58957.43
669.361	58910.65
669.711	58966.02
670.06	58912.91
670.41	58857.77
670.76	58849.64
671.109	58863.65
671.459	58871.33
671.808	58833.59
672.157	58951.78
672.507	58790.43
672.856	58769.87
673.205	58772.35
673.554	58846.93
673.904	58769.64
674.253	58959.92
674.602	58724.67
674.951	58512.25
675.3	58340.95
675.649	58762.18
675.998	58679.93
676.346	58745.01
676.695	58826.14
677.044	58673.15
677.393	58724.9
677.741	58813.48
678.09	58661.85
678.438	58554.51
678.787	58632.92
679.135	58626.14
679.484	58455.98
679.832	58549.76
680.181	58487.84
680.529	58562.41
680.877	58415.53
681.225	58358.58
681.573	58613.26
681.922	58381.18
682.27	58289.65
682.618	58352.48
682.966	58239.94
683.314	58345.92
683.661	58268.19
684.009	58123.56
684.357	58132.37
684.705	58061.19
685.053	58120.17
685.4	58004.69
685.748	57900.74
686.095	57936.89
686.443	57759.95
686.79	57753.85
687.138	57853.28
687.485	57757.92
687.832	57630.91
688.18	57674.08
688.527	57536
688.874	57494.87
689.221	57525.38
689.568	57365.61
689.915	57260.98
690.262	57338.49
690.609	57305.27
690.956	57129.01
691.303	57158.38
691.65	56990.7
691.997	56960.42
692.344	56892.85
692.69	56842.91
693.037	56778.28
693.383	56621.22
693.73	56668
694.077	56524.28
694.423	56503.71
694.769	56404.73
695.116	56331.74
695.462	56249.71
695.808	56149.6
696.155	56195.47
696.501	56017.85
696.847	56049.49
697.193	55750.29
697.539	55827.8
697.885	55646.11
698.231	55633.45
698.577	55649.5
698.923	55656.5
699.269	55427.13
699.614	55275.72
699.96	55220.81
700.306	55269.85
700.651	55138.78
700.997	55039.34
701.342	55026.69
701.688	54933.58
702.033	54841.83
702.379	54827.15
702.724	54638
703.069	54672.35
703.415	54401.39
703.76	54437.1
704.105	54472.13
704.45	54250.89
704.795	54196.43
705.14	54101.74
705.485	54151.91
705.83	53906.04
706.175	54023.1
706.52	53870.56
706.865	53790.79
707.209	53696.55
707.554	53648.65
707.899	53704.69
708.243	53607.52
708.588	53483.45
708.932	53294.76
709.277	53331.82
709.621	53238.26
709.966	53064.03
710.31	53116.68
710.654	52878.04
710.998	52941.32
711.342	52904.48
711.687	52830.14
712.031	52756.92
712.375	52618.39
712.719	52507.66
713.063	52628.56
713.407	52664.04
713.75	52386.31
714.094	52467.43
714.438	52346.99
714.782	52353.54
715.125	52128.23
715.469	52303.82
715.812	51975.47
716.156	51915.58
716.499	51846.21
716.843	52004.85
717.186	51815.7
717.53	51939.54
717.873	51897.73
718.216	51701.13
718.559	51590.62
718.902	51412.55
719.246	51454.81
719.589	51382.49
719.932	51226.56
720.275	51193.34
720.617	51254.13
720.96	51173.68
721.303	51122.38
721.646	51130.07
721.989	51049.62
722.331	51045.1
722.674	50889.62
723.016	50871.09
723.359	50659.57
723.701	50809.17
724.044	50589.07
724.386	50522.85
724.729	50624.54
725.071	50627.93
725.413	50544.09
725.755	50386.58
726.097	50392.69
726.439	50205.35
726.782	50169.42
727.124	50247.38
727.465	50211.22
727.807	50044.45
728.149	50150.88
728.491	50013.49
728.833	50036.54
729.175	49927.84
729.516	49815.75
729.858	49777.11
730.199	49824.11
730.541	49778.47
730.882	49696.21
731.224	49756.32
731.565	49565.59
731.906	49618.7
732.248	49658.02
732.589	49430.9
732.93	49425.93
733.271	49437.46
733.612	49438.36
733.953	49419.83
734.294	49159.5
734.635	49220.06
734.976	49328.31
735.317	48928.09
735.658	49089.44
735.999	49047.41
736.339	49078.6
736.68	49043.34
737.021	49009.9
737.361	48784.14
737.702	49010.8
738.042	48827.76
738.383	48914.31
738.723	48815.33
739.063	48574.88
739.404	48750.47
739.744	48648.78
740.084	48541.89
740.424	48568.78
740.764	48564.03
741.104	48641.55
741.444	48391.16
741.784	48310.03
742.124	48378.28
742.464	48204.04
742.804	48189.35
743.143	48072.75
743.483	48137.15
743.823	48022.13
744.162	47977.38
744.502	47999.98
744.841	47933.77
745.181	48074.1
745.52	47855.8
745.86	47902.36
746.199	47882.7
746.538	47774.22
746.877	47848.8
747.216	47776.03
747.556	47553.44
747.895	47703.94
748.234	47533.33
748.573	47485.87
748.911	47367.68
749.25	47516.38
749.589	47108.93
749.928	47339.21
750.267	47367.23
750.605	47071.64
750.944	47093.79
751.283	46965.88
751.621	47068.93
751.96	46896.96
752.298	46849.05
752.636	46880.46
752.975	46620.13
753.313	46539.91
753.651	46731.99
753.989	46487.93
754.327	46559.34
754.666	46233.25
755.004	46233.93
755.342	46322.51
755.679	46217.43
756.017	45932.46
756.355	46077.77
756.693	45952.8
757.031	46110.31
757.368	45642.98
757.706	45768.63
758.044	45575.41
758.381	45517.33
758.719	45395.76
759.056	45436.43
759.394	45287.96
759.731	45058.36
760.068	44959.61
760.405	44957.12
760.743	44844.36
761.08	44739.28
761.417	44665.61
761.754	44392.84
762.091	44435.55
762.428	44286.63
762.765	44100.87
763.102	44125.73
763.438	43967.09
763.775	43709.7
764.112	43900.88
764.449	43712.41
764.785	43606.88
765.122	43468.35
765.458	43139.77
765.795	43046.44
766.131	42994.91
766.467	42900.23
766.804	42711.31
767.14	42602.38
767.476	42457.08
767.812	42439
768.148	42474.93
768.485	42154.48
768.821	41861.84
769.157	41740.26
769.492	41832.01
769.828	41632.01
770.164	41309.54
770.5	41209.88
770.836	41321.74
771.171	41004.23
771.507	40885.82
771.842	40728.99
772.178	40635.43
772.513	40540.74
772.849	40377.13
773.184	40303.46
773.519	40132.39
773.855	40098.72
774.19	39950.7
774.525	39527.66
774.86	39651.05
775.195	39486.53
775.53	39320.44
775.865	39042.25
776.2	38774.01
776.535	38649.94
776.87	38595.71
777.205	38442.49
777.539	38238.88
777.874	38350.29
778.209	37931.32
778.543	38069.17
778.878	37684.32
779.212	37731.55
779.547	37470.54
779.881	37427.83
780.215	37191.45
780.55	37258.34
780.884	36993.49
781.218	36823.33
781.552	36910.78
781.886	36574.74
782.22	36515.76
782.554	36237.13
782.888	36086.85
783.222	36092.95
783.556	35829.68
783.889	35705.84
784.223	35548.33
784.557	35511.04
784.89	35380.88
785.224	35343.59
785.557	34929.14
785.891	35018.85
786.224	34946.99
786.558	34924.17
786.891	34672.2
787.224	34558.75
787.557	34285.99
787.891	34409.15
788.224	34148.14
788.557	34070.18
788.89	34078.99
789.223	33865.89
789.556	33696.4
789.888	33569.4
790.221	33436.97
790.554	33410.76
790.887	33406.69
791.219	33098.23
791.552	33106.36
791.884	32895.75
792.217	32868.18
792.549	32670.21
792.882	32486.04
793.214	32342.54
793.546	32454.85
793.879	32310.9
794.211	31912.27
794.543	32134.64
794.875	31977.8
795.207	32037.46
795.539	31844.25
795.871	31771.48
796.203	31714.99
796.535	31328.1
796.867	31504.14
797.198	31062.8
797.53	31299.85
797.862	30990.26
798.193	30995.23
798.525	30847.21
798.856	30906.87
799.188	30444.51
799.519	30396.38
799.85	30316.83
800.182	30360.44
800.513	30394.12
800.844	29941.02
801.175	30177.4
801.506	30080
801.837	29918.42
802.168	29914.13
802.499	29917.29
802.83	29590.75
803.161	29506.68
803.491	29485.89
803.822	29547.13
804.153	29226.46
804.483	29035.06
804.814	28854.95
805.145	29004.77
805.475	28979.24
805.805	28716.19
806.136	28690.43
806.466	28711.67
806.796	28739.7
807.126	28502.87
807.457	28455.18
807.787	28448.4
808.117	28186.94
808.447	28194.85
808.777	28234.17
809.107	28009.55
809.436	28017.46
809.766	27972.48
810.096	27881.19
810.426	27764.35
810.755	27720.51
811.085	27573.63
811.414	27644.36
811.744	27537.47
812.073	27501.76
812.403	27357.13
812.732	27229.68
813.061	27523.68
813.39	27009.12
813.719	27005.28
814.049	27214.09
814.378	27145.84
814.707	26948.1
815.036	26948.56
815.365	26774.32
815.693	26744.95
816.022	26705.17
816.351	26634.89
816.68	26518.29
817.008	26630.6
817.337	26349.48
817.665	26332.3
817.994	26274.68
818.322	26289.14
818.651	26135.47
818.979	25959.43
819.307	26122.59
819.636	25982.71
819.964	25893.9
820.292	26055.47
820.62	26042.14
820.948	25979.09
821.276	25945.42
821.604	25967.79
821.932	26027
822.259	25926.66
822.587	25909.71
822.915	25808.25
823.243	25934.8
823.57	25780.23
823.898	25967.79
824.225	25888.92
824.553	25791.07
824.88	25875.14
825.207	26016.6
825.535	25777.06
825.862	25862.94
826.189	25733.22
826.516	25887.79
826.843	25958.98
827.17	26039.43
827.497	26041.46
827.824	25966.44
828.151	25967.34
828.478	25930.28
828.805	25949.71
829.131	25846.44
829.458	25951.07
829.785	25656.39
830.111	25840.11
830.438	25922.37
830.764	25844.86
831.09	25837.85
831.417	25760.34
831.743	25850.51
832.069	25794.91
832.395	25737.29
832.722	25766.89
833.048	25700
833.374	25791.3
833.7	25610.97
834.026	25721.92
834.351	25615.26
834.677	25621.36
835.003	25648.7
835.329	25553.34
835.654	25505.66
835.98	25439.22
836.306	25536.62
836.631	25431.53
836.956	25508.37
837.282	25544.07
837.607	25398.77
837.932	25442.83
838.258	25350.18
838.583	25412.78
838.908	25198.09
839.233	25330.75
839.558	25254.36
839.883	25162.62
840.208	24975.5
840.533	25040.81
840.858	25003.98
841.182	24961.26
841.507	24999.68
841.832	24936.63
842.156	24740.48
842.481	24870.19
842.805	24604.89
843.13	24585.68
843.454	24680.37
843.778	24556.08
844.103	24498.68
844.427	24542.74
844.751	24498.45
845.075	24393.82
845.399	24321.51
845.723	24263.66
846.047	24200.15
846.371	24052.14
846.695	24000.84
847.019	23753.16
847.343	23733.05
847.666	23688.08
847.99	23482.66
848.313	23336
848.637	23409.44
848.96	23301.87
849.284	23361.76
849.607	23234.3
849.931	23144.14
850.254	22896.23
850.577	22725.62
850.9	22689.01
851.223	22589.8
851.546	22561.33
851.869	22441.56
852.192	22549.8
852.515	22295.12
852.838	22216.03
853.161	22223.71
853.483	21998.86
853.806	22020.78
854.129	21974.9
854.451	21955.92
854.774	21777.85
855.096	21703.05
855.419	21660.56
855.741	21606.32
856.063	21373.79
856.385	21355.26
856.708	21350.06
857.03	21254.92
857.352	21260.34
857.674	21231.65
857.996	21000.46
858.318	21009.5
858.64	21024.64
858.961	20935.16
859.283	20912.56
859.605	20792.56
859.926	20811.54
860.248	20716.86
860.57	20649.51
860.891	20630.76
861.212	20621.94
861.534	20474.83
861.855	20408.62
862.176	20447.48
862.498	20437.99
862.819	20347.6
863.14	20299.24
863.461	20254.5
863.782	20176.98
864.103	20178.79
864.424	20110.09
864.745	20059.02
865.065	19974.96
865.386	19968.63
865.707	19996.65
866.027	19975.18
866.348	19926.82
866.668	19870.32
866.989	19815.64
867.309	19649.09
867.63	19757.79
867.95	19786.94
868.27	19619.71
868.59	19727.5
868.91	19658.35
869.23	19573.61
869.55	19584.68
869.87	19590.78
870.19	19476.89
870.51	19359.38
870.83	19367.29
871.15	19430.11
871.469	19348.76
871.789	19457.91
872.109	19290.68
872.428	19196.22
872.748	19334.07
873.067	19201.42
873.386	19240.29
873.706	19205.03
874.025	19107.18
874.344	18945.6
874.663	19080.52
874.982	19002.1
875.301	18984.25
875.62	18968.43
875.939	18900.41
876.258	18878.03
876.577	18861.76
876.896	18780.18
877.214	18927.3
877.533	18692.95
877.852	18763.91
878.17	18657.7
878.489	18839.39
878.807	18719.62
879.125	18620.19
879.444	18524.82
879.762	18526.41
880.08	18593.52
880.398	18436.69
880.716	18517.59
881.034	18447.99
881.352	18477.59
881.67	18413.64
881.988	18389.69
882.306	18274.43
882.624	18266.98
882.941	18174.78
883.259	18145.4
883.577	18151.27
883.894	18097.49
884.212	18112.86
884.529	18008.68
884.846	17924.84
885.164	17897.95
885.481	17847.1
885.798	17810.49
886.115	17779.31
886.432	17697.95
886.75	17780.89
887.067	17735.92
887.383	17666.32
887.7	17685.98
888.017	17508.13
888.334	17490.73
888.651	17435.81
888.967	17474.68
889.284	17367.79
889.6	17326.66
889.917	17274.69
890.233	17169.83
890.55	17151.07
890.866	17156.5
891.182	17080.12
891.498	17080.79
891.815	16989.27
892.131	16817.3
892.447	16821.82
892.763	16737.07
893.079	16720.58
893.395	16707.7
893.71	16583.18
894.026	16615.95
894.342	16589.28
894.657	16507.93
894.973	16421.6
895.289	16385.22
895.604	16369.85
895.92	16310.42
896.235	16210.99
896.55	16144.32
896.865	16202.17
897.181	16074.49
897.496	16076.07
897.811	15983.42
898.126	15846.02
898.441	15798.57
898.756	15866.14
899.071	15770.09
899.386	15826.36
899.7	15677.67
900.015	15567.39
900.33	15432.48
900.644	15477.22
900.959	15452.81
901.273	15396.54
901.588	15399.03
901.902	15253.72
902.216	15179.83
902.531	15116.1
902.845	15044.46
903.159	14955.2
903.473	15019.15
903.787	14918.14
904.101	14772.83
904.415	14742.1
904.729	14814.86
905.042	14705.72
905.356	14632.72
905.67	14600.86
905.984	14630.01
906.297	14603.57
906.611	14416.68
906.924	14383.01
907.237	14335.56
907.551	14289.45
907.864	14176.01
908.177	14098.27
908.491	14041.1
908.804	13996.58
909.117	14013.76
909.43	13850.82
909.743	13831.39
910.056	13888.79
910.368	13758.85
910.681	13663.03
910.994	13677.49
911.307	13569.25
911.619	13443.38
911.932	13524.28
912.244	13405.64
912.557	13427.56
912.869	13302.81
913.181	13268.92
913.494	13192.99
913.806	13101.69
914.118	13119.09
914.43	13081.35
914.742	12985.31
915.054	12884.97
915.366	12830.06
915.678	12785.54
915.99	12717.74
916.302	12667.58
916.613	12607.69
916.925	12578.77
917.236	12604.53
917.548	12530.4
917.859	12492.44
918.171	12430.97
918.482	12226.46
918.794	12346.23
919.105	12245.89
919.416	12104.43
919.727	12129.74
920.038	12150.3
920.349	12002.74
920.66	11901.49
920.971	11969.06
921.282	11891.1
921.593	11875.51
921.903	11694.95
922.214	11689.52
922.525	11654.72
922.835	11667.38
923.146	11516.19
923.456	11553.71
923.767	11414.05
924.077	11463.31
924.387	11310.32
924.697	11329.76
925.008	11224.45
925.318	11311.91
925.628	11260.83
925.938	11212.02
926.248	11082.08
926.558	11005.25
926.867	10953.5
927.177	10856.1
927.487	10896.78
927.796	10871.01
928.106	10847.06
928.416	10803.9
928.725	10755.54
929.034	10667.18
929.344	10725.71
929.653	10597.12
929.962	10590.57
930.271	10374.98
930.581	10460.4
930.89	10367.98
931.199	10258.83
931.508	10340.18
931.817	10301.76
932.125	10255.21
932.434	10238.04
932.743	10081.2
933.051	10055.44
933.36	10046.4
933.669	10004.6
933.977	9919.63
934.286	9913.75
934.594	9850.25
934.902	9839.63
935.21	9783.81
935.519	9726.86
935.827	9692.29
936.135	9587.43
936.443	9569.58
936.751	9554.21
937.059	9528.22
937.367	9475.57
937.674	9460.2
937.982	9425.63
938.29	9377.72
938.597	9363.03
938.905	9253.43
939.213	9200.55
939.52	9165.75
939.827	9233.54
940.135	9116.48
940.442	9031.29
940.749	9097.73
941.056	9043.04
941.363	8918.75
941.67	8867
941.977	8856.83
942.284	8843.5
942.591	8829.03
942.898	8825.64
943.205	8721.47
943.511	8726.21
943.818	8626.55
944.125	8558.76
944.431	8615.25
944.738	8510.4
945.044	8492.55
945.35	8427.69
945.657	8417.29
945.963	8370.74
946.269	8281.03
946.575	8413.68
946.881	8273.57
947.187	8207.81
947.493	8177.98
947.799	8171.65
948.105	8104.98
948.41	8067.7
948.716	8053.46
949.022	8030.64
949.327	7939.11
949.633	7981.6
949.938	7860.47
950.244	7879.68
950.549	7862.96
950.854	7701.38
951.16	7796.07
951.465	7733.47
951.77	7665.45
952.075	7593.36
952.38	7631.32
952.685	7659.57
952.99	7501.38
953.294	7518.33
953.599	7517.88
953.904	7462.74
954.209	7355.85
954.513	7418.67
954.818	7354.04
955.122	7337.55
955.426	7307.49
955.731	7260.49
956.035	7180.04
956.339	7218.23
956.643	7123.54
956.948	7082.41
957.252	7053.49
957.556	7083.54
957.86	6977.78
958.163	7004.67
958.467	6968.97
958.771	6936.88
959.075	6969.2
959.378	6831.35
959.682	6854.62
959.985	6806.04
960.289	6778.69
960.592	6724.46
960.896	6747.96
961.199	6729.88
961.502	6700.05
961.805	6580.28
962.108	6562.43
962.411	6589.54
962.714	6563.1
963.017	6531.01
963.32	6514.52
963.623	6430.9
963.926	6486.72
964.228	6417.12
964.531	6416.67
964.833	6334.18
965.136	6360.62
965.438	6281.53
965.741	6248.54
966.043	6211.93
966.345	6218.48
966.648	6111.36
966.95	6163.57
967.252	6151.59
967.554	6100.29
967.856	6041.31
968.158	6005.15
968.46	6000.18
968.761	5950.24
969.063	5962.44
969.365	5882.22
969.666	5857.59
969.968	5878.15
970.269	5853.52
970.571	5819.85
970.872	5829.56
971.174	5793.86
971.475	5754.99
971.776	5720.41
972.077	5644.48
972.378	5697.14
972.679	5660.3
972.98	5614.43
973.281	5590.47
973.582	5637.25
973.883	5562.23
974.183	5505.96
974.484	5504.6
974.785	5455.11
975.085	5425.96
975.386	5474.32
975.686	5440.42
975.986	5333.08
976.287	5336.7
976.587	5325.62
976.887	5286.75
977.187	5272.74
977.487	5272.29
977.787	5220.99
978.087	5209.47
978.387	5163.37
978.687	5099.19
978.987	5143.25
979.286	5032.98
979.586	5056.7
979.885	5070.04
980.185	5042.92
980.484	4964.5
980.784	5026.65
981.083	4934.67
981.382	4921.34
981.682	4944.39
981.981	4924.5
982.28	4853.32
982.579	4838.4
982.878	4825.3
983.177	4748.24
983.475	4760.67
983.774	4757.5
984.073	4674.57
984.372	4735.36
984.67	4701.68
984.969	4686.77
985.267	4699.65
985.566	4647.22
985.864	4611.97
986.162	4628.47
986.461	4554.8
986.759	4524.06
987.057	4497.85
987.355	4438.19
987.653	4466.44
987.951	4483.61
988.249	4428.7
988.547	4420.79
988.844	4385.99
989.142	4378.75
989.44	4352.54
989.737	4337.63
990.035	4366.33
990.332	4287.68
990.63	4230.74
990.927	4298.53
991.224	4218.31
991.521	4181.02
991.819	4200
992.116	4130.17
992.413	4090.4
992.71	4129.27
993.006	4076.84
993.303	4145.09
993.6	4101.93
993.897	4087.92
994.193	4037.07
994.49	4020.35
994.787	3981.25
995.083	3971.76
995.379	3924.3
995.676	3902.38
995.972	3887.69
996.268	3880.01
996.565	3877.53
996.861	3819.22
997.157	3827.81
997.453	3814.02
997.749	3809.28
998.044	3757.53
998.34	3720.47
998.636	3724.99
998.932	3712.56
999.227	3661.94
999.523	3692.45
999.818	3646.8
1000.114	3607.7
1000.409	3566.57
1000.704	3565.89
1001	3567.93
1001.295	3549.17
1001.59	3478.89
1001.885	3469.4
1002.18	3477.54
1002.475	3438.89
1002.77	3452
1003.065	3395.5
1003.359	3421.49
1003.654	3374.04
1003.949	3355.5
1004.243	3375.62
1004.538	3281.83
1004.832	3302.4
1005.127	3297.2
1005.421	3247.03
1005.715	3233.47
1006.009	3224.21
1006.304	3200.93
1006.598	3175.85
1006.892	3178.33
1007.186	3123.87
1007.48	3116.19
1007.773	3082.97
1008.067	3101.5
1008.361	3055.17
1008.655	3048.62
1008.948	3049.52
1009.242	3022.86
1009.535	2983.99
1009.829	2984.89
1010.122	2982.63
1010.415	2942.86
1010.708	2922.52
1011.001	2893.37
1011.295	2885.46
1011.588	2858.34
1011.881	2850.43
1012.173	2842.52
1012.466	2858.34
1012.759	2822.86
1013.052	2813.15
1013.344	2766.59
1013.637	2762.07
1013.93	2738.8
1014.222	2709.42
1014.514	2707.84
1014.807	2673.26
1015.099	2676.88
1015.391	2638.46
1015.683	2661.74
1015.976	2627.16
1016.268	2632.13
1016.56	2569.76
1016.851	2537.67
1017.143	2537.67
1017.435	2542.42
1017.727	2518.69
1018.018	2490.67
1018.31	2473.49
1018.602	2460.84
1018.893	2454.06
1019.185	2434.17
1019.476	2425.13
1019.767	2392.59
1020.058	2390.56
1020.35	2339.94
1020.641	2349.88
1020.932	2330.67
1021.223	2318.92
1021.514	2291.35
1021.804	2274.86
1022.095	2265.82
1022.386	2273.27
1022.677	2190.11
1022.967	2227.4
1023.258	2199.6
1023.548	2159.83
1023.839	2154.63
1024.129	2138.14
1024.419	2129.55
1024.709	2119.83
1025	2104.69
1025.29	2068.08
1025.58	2083.9
1025.87	2064.01
1026.16	2036.9
1026.449	2028.99
1026.739	2041.19
1027.029	2014.07
1027.319	1981.53
1027.608	1954.41
1027.898	1911.48
1028.187	1940.4
1028.477	1913.28
1028.766	1903.57
1029.055	1902.44
1029.344	1885.94
1029.634	1903.57
1029.923	1895.43
1030.212	1850.23
1030.501	1815.43
1030.79	1800.97
1031.078	1823.57
1031.367	1805.04
1031.656	1782.89
1031.945	1779.05
1032.233	1750.8
1032.522	1741.31
1032.81	1737.47
1033.099	1724.36
1033.387	1701.76
1033.675	1708.32
1033.963	1694.31
1034.251	1668.09
1034.54	1650.47
1034.828	1642.78
1035.116	1612.27
1035.403	1619.28
1035.691	1616.79
1035.979	1590.81
1036.267	1583.35
1036.554	1562.78
1036.842	1570.47
1037.129	1547.42
1037.417	1547.42
1037.704	1528.43
1037.992	1523.01
1038.279	1538.6
1038.566	1511.71
1038.853	1511.71
1039.14	1511.71
