Data from 277_FLMS001491_002.txt Node
Date: Thu Apr 19 16:44:58 BST 2018
User: hsy
Spectrometer: FLMS00149
Trigger mode: 0
Integration Time (sec): 1.000000E-2
Scans to average: 10
Electric dark correction enabled: true
Nonlinearity correction enabled: false
Boxcar width: 0
XAxis mode: Wavelengths
Number of Pixels in Spectrum: 2048
>>>>>Begin Spectral Data<<<<<
341.393	10.01
341.776	10.01
342.16	10.01
342.543	-78.8
342.927	-73.6
343.31	-73.37
343.693	-63.88
344.077	-50.78
344.46	-67.72
344.843	-51
345.226	-39.93
345.61	-25.24
345.993	-19.82
346.376	-10.78
346.759	1.88
347.142	7.08
347.525	38.71
347.908	82.55
348.291	69.22
348.674	89.11
349.057	113.97
349.44	118.03
349.823	134.08
350.206	159.84
350.588	219.73
350.971	232.83
351.354	250.69
351.737	273.28
352.119	276.9
352.502	294.75
352.884	303.79
353.267	301.53
353.65	332.94
354.032	331.14
354.414	317.58
354.797	351.7
355.179	330.23
355.562	364.81
355.944	371.59
356.326	356.67
356.709	372.49
357.091	385.15
357.473	377.01
357.855	378.14
358.238	369.78
358.62	385.6
359.002	401.19
359.384	397.35
359.766	363.22
360.148	357.58
360.53	377.91
360.912	358.93
361.294	355.32
361.676	395.09
362.057	348.08
362.439	379.72
362.821	382.89
363.203	391.02
363.584	358.71
363.966	364.35
364.348	364.58
364.729	378.37
365.111	358.25
365.493	357.35
365.874	365.03
366.256	372.49
366.637	375.43
367.019	351.47
367.4	361.42
367.781	372.26
368.163	374.3
368.544	366.16
368.925	349.67
369.306	389.21
369.688	353.28
370.069	354.19
370.45	341.98
370.831	379.04
371.212	384.92
371.593	358.71
371.974	386.05
372.355	390.79
372.736	381.53
373.117	351.7
373.498	367.97
373.879	384.92
374.26	389.66
374.641	365.26
375.021	371.36
375.402	380.85
375.783	386.05
376.163	387.18
376.544	400.96
376.925	397.35
377.305	393.96
377.686	400.29
378.066	390.57
378.447	401.19
378.827	420.4
379.208	425.6
379.588	431.47
379.968	407.07
380.349	412.72
380.729	400.29
381.109	409.55
381.489	418.36
381.87	427.63
382.25	440.74
382.63	425.6
383.01	424.24
383.39	433.28
383.77	439.83
384.15	456.33
384.53	421.08
384.91	434.86
385.29	464.92
385.67	431.92
386.049	452.94
386.429	454.97
386.809	459.04
387.189	448.87
387.568	454.3
387.948	460.85
388.328	472.83
388.707	474.63
389.087	472.6
389.466	479.61
389.846	480.96
390.225	482.77
390.605	492.04
390.984	520.96
391.363	491.81
391.743	535.65
392.122	513.96
392.501	511.47
392.881	513.73
393.26	513.73
393.639	531.81
394.018	540.4
394.397	537.68
394.776	562.09
395.155	552.6
395.534	555.31
395.913	575.87
396.292	562.09
396.671	559.83
397.05	581.98
397.429	573.39
397.808	575.65
398.186	593.73
398.565	602.54
398.944	591.69
399.323	598.47
399.701	623.56
400.08	628.75
400.458	626.49
400.837	601.18
401.215	661.3
401.594	653.16
401.972	665.14
402.351	661.52
402.729	691.35
403.107	678.24
403.486	694.06
403.864	697.23
404.242	715.53
404.62	708.53
404.999	746.04
405.377	739.49
405.755	740.16
406.133	764.12
406.511	758.24
406.889	784.68
407.267	795.08
407.645	791.91
408.023	815.87
408.401	830.56
408.779	832.37
409.156	873.72
409.534	878.47
409.912	886.6
410.29	919.37
410.667	908.07
411.045	948.29
411.422	977.45
411.8	967.05
412.178	978.8
412.555	1025.58
412.933	1002.3
413.31	1045.69
413.687	1089.08
414.065	1076.88
414.442	1075.52
414.819	1120.04
415.197	1129.98
415.574	1177.44
415.951	1136.76
416.328	1159.59
416.705	1189.19
417.082	1212.69
417.46	1224.22
417.837	1182.64
418.214	1281.17
418.591	1284.78
418.967	1278.23
419.344	1302.18
419.721	1313.03
420.098	1295.4
420.475	1355.52
420.852	1369.07
421.228	1391.45
421.605	1360.71
421.982	1405.23
422.358	1437.09
422.735	1462.86
423.111	1479.81
423.488	1468.05
423.864	1507.38
424.241	1504.89
424.617	1540.82
424.994	1561.39
425.37	1599.35
425.746	1590.31
426.123	1652
426.499	1623.98
426.875	1658.56
427.251	1698.56
427.627	1755.5
428.003	1719.35
428.379	1733.13
428.756	1790.98
429.132	1803.64
429.507	1821.49
429.883	1881.15
430.259	1888.61
430.635	1875.95
431.011	1934.71
431.387	1990.75
431.763	2024.88
432.138	2033.92
432.514	2096.29
432.89	2105.55
433.265	2132.9
433.641	2178.32
434.016	2175.38
434.392	2194.36
434.767	2279.78
435.143	2276.39
435.518	2313
435.894	2337.41
436.269	2392.78
436.644	2443.4
437.02	2453.79
437.395	2514.81
437.77	2533.79
438.145	2517.07
438.52	2596.84
438.895	2599.78
439.271	2579.44
439.646	2666.89
440.021	2701.02
440.395	2701.92
440.77	2679.32
441.145	2751.64
441.52	2763.16
441.895	2799.09
442.27	2777.4
442.645	2830.5
443.019	2865.08
443.394	2895.81
443.769	2913.44
444.143	2856.94
444.518	2957.73
444.892	2959.09
445.267	2979.43
445.641	2986.43
446.016	3006.77
446.39	3048.35
446.764	3096.49
447.139	3047.9
447.513	3127.45
447.887	3165.86
448.262	3136.03
448.636	3219.65
449.01	3249.7
449.384	3258.06
449.758	3256.93
450.132	3334.45
450.506	3331.28
450.88	3338.97
451.254	3406.76
451.628	3407.66
452.002	3476.59
452.376	3523.37
452.75	3540.09
453.123	3526.98
453.497	3635.91
453.871	3634.78
454.244	3731.95
454.618	3769.46
454.992	3835
455.365	3858.27
455.739	3917.93
456.112	3972.85
456.486	4044.48
456.859	4047.65
457.232	4109.34
457.606	4184.14
457.979	4201.99
458.352	4319.51
458.725	4347.3
459.099	4403.57
459.472	4412.84
459.845	4541.19
460.218	4520.63
460.591	4602.21
460.964	4608.09
461.337	4689.21
461.71	4846.27
462.083	4891.24
462.456	4929.66
462.829	4870.45
463.201	5013.95
463.574	5021.86
463.947	5092.82
464.32	5208.75
464.692	5213.72
465.065	5254.85
465.438	5377.33
465.81	5412.58
466.183	5434.5
466.555	5555.4
466.928	5606.02
467.3	5595.63
467.672	5735.96
468.045	5796.3
468.417	5863.19
468.789	5908.84
469.161	5964.43
469.534	6068.84
469.906	6170.98
470.278	6227.25
470.65	6291.2
471.022	6414.82
471.394	6516.96
471.766	6573.23
472.138	6622.04
472.51	6778.42
472.882	6895.71
473.253	6928.25
473.625	7016.16
473.997	7140.45
474.369	7212.99
474.74	7314
475.112	7463.6
475.484	7636.03
475.855	7628.8
476.227	7691.39
476.598	7999.63
476.97	8062.68
477.341	8199.86
477.713	8316.91
478.084	8381.55
478.455	8633.52
478.827	8635.1
479.198	8897.46
479.569	8930.68
479.94	9131.36
480.311	9218.36
480.682	9466.94
481.053	9692.92
481.424	9800.49
481.795	9887.04
482.166	10012.46
482.537	10201.61
482.908	10367.93
483.279	10533.35
483.65	10764.76
484.021	10889.73
484.391	10992.1
484.762	11174.47
485.133	11192.32
485.503	11396.61
485.874	11601.8
486.244	11677.05
486.615	11947.78
486.985	12159.52
487.356	12318.39
487.726	12355.9
488.097	12688.32
488.467	12807.19
488.837	12985.04
489.207	13118.37
489.578	13308.87
489.948	13455.99
490.318	13607.17
490.688	13768.3
491.058	13937.11
491.428	14095.07
491.798	14216.87
492.168	14472.46
492.538	14501.16
492.908	14652.79
493.278	14947.02
493.648	14906.57
494.017	15152.21
494.387	15186.56
494.757	15391.76
495.126	15438.99
495.496	15533.9
495.866	15724.18
496.235	15746.78
496.605	15989.71
496.974	16024.73
497.344	16226.54
497.713	16305.86
498.082	16369.13
498.452	16495.46
498.821	16630.14
499.19	16681.21
499.559	16740.87
499.928	16910.81
500.298	17009.79
500.667	17068.55
501.036	17117.36
501.405	17245.94
501.774	17328.65
502.143	17400.07
502.512	17512.6
502.88	17688.65
503.249	17571.13
503.618	17821.52
503.987	17783.11
504.356	17993.04
504.724	18068.75
505.093	18105.13
505.462	18200.27
505.83	18259.93
506.199	18310.78
506.567	18562.07
506.936	18636.87
507.304	18763.87
507.672	18784.89
508.041	18857.2
508.409	19089.96
508.777	19262.16
509.145	19291.99
509.514	19294.93
509.882	19454.93
510.25	19432.78
510.618	19715.03
510.986	19626.67
511.354	19817.85
511.722	19988.7
512.09	20172.87
512.458	20023.5
512.826	20297.62
513.193	20231.4
513.561	20427.56
513.929	20463.94
514.297	20637.49
514.664	20843.36
515.032	21052.85
515.4	21152.96
515.767	21226.86
516.135	21301.21
516.502	21138.95
516.869	21576.68
517.237	21551.82
517.604	21521.31
517.972	21849.89
518.339	21916.33
518.706	22035.65
519.073	22048.53
519.44	22355.42
519.808	22477.67
520.175	22456.88
520.542	22721.51
520.909	22908.85
521.276	22839.7
521.643	23206.01
522.009	23140.93
522.376	23448.49
522.743	23468.61
523.11	23728.94
523.477	23913.57
523.843	24042.38
524.21	24249.83
524.577	24402.82
524.943	24533.44
525.31	24633.1
525.676	24919.87
526.043	25033.54
526.409	25177.26
526.776	25318.5
527.142	25483.69
527.508	25532.51
527.874	25757.36
528.241	25797.36
528.607	25979.27
528.973	26139.72
529.339	26158.25
529.705	26334.52
530.071	26576.55
530.437	26678.92
530.803	26917.55
531.169	26974.5
531.535	26932.02
531.901	27121.17
532.267	27261.73
532.632	27348.05
532.998	27340.82
533.364	27582.85
533.73	27549.4
534.095	27806.35
534.461	27704.43
534.826	27914.59
535.192	27862.61
535.557	28126.11
535.923	28213.34
536.288	28277.07
536.653	28228.48
537.019	28250.4
537.384	28415.59
537.749	28328.59
538.114	28444.07
538.479	28345.77
538.845	28550.96
539.21	28435.03
539.575	28558.19
539.94	28607.68
540.305	28706.66
540.67	28654.23
541.034	28660.33
541.399	28821.91
541.764	28801.12
542.129	28876.37
542.494	29045.86
542.858	28965.86
543.223	28915.47
543.587	29021.45
543.952	28970.83
544.316	29094.22
544.681	28946.2
545.045	29094.67
545.41	29076.37
545.774	29056.48
546.138	28971.96
546.503	29101.68
546.867	29075.69
547.231	29313.42
547.595	29185.07
547.959	29245.86
548.324	29175.12
548.688	29167.67
549.052	29494.44
549.416	29340.54
549.779	29105.97
550.143	29282.69
550.507	29388.68
550.871	29442.46
551.235	29259.87
551.599	29496.02
551.962	29386.19
552.326	29522.46
552.689	29499.41
553.053	29314.33
553.417	29463.7
553.78	29645.17
554.143	29683.81
554.507	29737.37
554.87	29851.49
555.234	29854.65
555.597	29690.14
555.96	29816.69
556.323	29844.94
556.686	29787.31
557.05	29926.74
557.413	29911.83
557.776	29942.33
558.139	30000.64
558.502	30048.09
558.865	30088.77
559.228	30266.85
559.59	30243.34
559.953	30241.08
560.316	30430.23
560.679	30424.13
561.041	30459.16
561.404	30510.68
561.767	30670
562.129	30532.6
562.492	30783.44
562.854	30820.05
563.217	30861.41
563.579	30938.47
563.941	30912.93
564.304	30955.19
564.666	31304.78
565.028	31207.84
565.39	31316.08
565.753	31491.9
566.115	31517.89
566.477	31631.78
566.839	31631.1
567.201	31868.39
567.563	31913.13
567.925	31984.09
568.287	32113.12
568.648	32145.44
569.01	32172.78
569.372	32567.12
569.734	32468.14
570.095	32603.06
570.457	32666.33
570.819	32817.51
571.18	32654.58
571.542	32977.96
571.903	32867
572.265	33049.6
572.626	33243.49
572.987	33177.96
573.349	33323.94
573.71	33348.57
574.071	33407.33
574.432	33606.87
574.794	33897.26
575.155	33798.5
575.516	33788.11
575.877	33847.54
576.238	34039.85
576.599	34048.67
576.96	34251.37
577.32	34181.77
577.681	34284.59
578.042	34541.31
578.403	34592.16
578.763	34552.61
579.124	34546.28
579.485	34851.58
579.845	34740.4
580.206	34780.4
580.566	34908.53
580.927	34784.47
581.287	35120.73
581.648	34976.78
582.008	35111.92
582.368	35161.86
582.728	35153.72
583.089	35322.08
583.449	35443.88
583.809	35505.35
584.169	35639.59
584.529	35449.53
584.889	35802.52
585.249	35609.3
585.609	35558.68
585.969	35823.31
586.329	35600.26
586.688	36044.55
587.048	35934.72
587.408	35859.24
587.768	35917.32
588.127	35992.57
588.487	35984.89
588.846	36376.97
589.206	35985.34
589.565	35969.07
589.925	36389.62
590.284	36384.88
590.643	36403.18
591.003	36528.15
591.362	36684.53
591.721	36678.2
592.08	36616.96
592.44	36785.54
592.799	36715.94
593.158	36821.48
593.517	36850.18
593.876	37088.59
594.235	36966.1
594.593	36989.15
594.952	37022.37
595.311	37001.81
595.67	37245.64
596.029	37389.14
596.387	37483.6
596.746	37729.93
597.104	37343.95
597.463	37515.24
597.822	37668.91
598.18	37566.77
598.538	37581.91
598.897	37802.47
599.255	37728.12
599.613	38172.17
599.972	37968.79
600.33	38107.54
600.688	38132.4
601.046	38155.45
601.404	38476.57
601.762	38458.72
602.12	38523.13
602.478	38541.88
602.836	38575.78
603.194	38524.48
603.552	38434.77
603.91	38482.67
604.268	38765.83
604.625	38760.63
604.983	38850.35
605.341	38659.17
605.698	39185.25
606.056	39212.82
606.413	39035.43
606.771	39384.8
607.128	39371.46
607.485	39307.29
607.843	39371.92
608.2	39531.69
608.557	39693.72
608.914	39696.43
609.272	39766.71
609.629	39915.63
609.986	39895.07
610.343	39876.08
610.7	40211.67
611.057	40154.27
611.414	40179.58
611.771	40529.4
612.127	40467.93
612.484	40509.06
612.841	40608.72
613.198	40463.87
613.554	40470.87
613.911	40715.16
614.267	40805.33
614.624	40882.61
614.98	40950.63
615.337	41220.23
615.693	41118.09
616.05	41258.65
616.406	41287.8
616.762	41275.6
617.118	41278.31
617.475	41343.39
617.831	41544.74
618.187	41545.87
618.543	41611.86
618.899	41776.15
619.255	41697.96
619.611	41669.26
619.967	41892.98
620.323	41999.64
620.678	41875.13
621.034	41733.44
621.39	41899.99
621.746	41971.4
622.101	42461.78
622.457	42080.55
622.812	42198.06
623.168	42351.73
623.523	42350.82
623.879	42440.99
624.234	42253.87
624.589	42450.03
624.945	42533.19
625.3	42409.13
625.655	42514.66
626.01	42362.57
626.365	42512.17
626.72	42498.16
627.075	42267.43
627.43	42526.18
627.785	42475.34
628.14	42457.26
628.495	42561.21
628.85	42546.97
629.205	42453.19
629.559	42519.86
629.914	42439.63
630.269	42358.28
630.623	42224.05
630.978	42116.48
631.332	42513.08
631.687	42501.1
632.041	42402.57
632.396	42370.03
632.75	42188.11
633.104	42297.26
633.459	42015.92
633.813	42174.33
634.167	42106.31
634.521	42210.03
634.875	42140.43
635.229	42022.24
635.583	41970.04
635.937	42094.11
636.291	41891.4
636.645	41885.97
636.999	41810.72
637.352	41879.65
637.706	41523.95
638.06	41775.02
638.413	41694.79
638.767	41578.41
639.121	41651.4
639.474	41535.02
639.828	41558.07
640.181	41379.77
640.534	41581.35
640.888	41428.81
641.241	41259.55
641.594	41366.67
641.947	41396.04
642.301	41383.84
642.654	41387.68
643.007	41279.66
643.36	41301.81
643.713	41291.64
644.066	41520.79
644.419	41103.4
644.771	40895.49
645.124	40423.19
645.477	40496.86
645.83	40302.51
646.182	40231.56
646.535	40155.4
646.888	40211.44
647.24	40137.32
647.593	40311.55
647.945	40089.19
648.298	40187.94
648.65	39910.66
649.002	39866.82
649.355	39934.16
649.707	39829.53
650.059	39742.98
650.411	40499.8
650.763	40481.27
651.115	41036.73
651.467	40784.08
651.819	41087.8
652.171	40858.43
652.523	40906.11
652.875	40766.91
653.227	40777.98
653.578	40886.91
653.93	40791.09
654.282	40753.8
654.633	40681.94
654.985	40757.87
655.337	40774.59
655.688	40710.86
656.039	40992.21
656.391	40634.26
656.742	40799.22
657.094	40704.99
657.445	40856.4
657.796	40869.28
658.147	40833.8
658.498	40909.05
658.849	41014.59
659.2	40915.38
659.551	40791.99
659.902	41253.22
660.253	41050.97
660.604	41211.87
660.955	40938.43
661.306	41302.94
661.656	41112.66
662.007	41233.79
662.358	41223.39
662.708	41089.16
663.059	41274.69
663.409	41015.72
663.76	41249.61
664.11	41260.45
664.461	41324.63
664.811	41196.73
665.161	41354.92
665.511	41294.13
665.862	41347.46
666.212	41511.75
666.562	41343.16
666.912	41322.83
667.262	41291.87
667.612	41294.58
667.962	41333
668.312	41173.9
668.662	41476.95
669.011	41352.2
669.361	41245.99
669.711	41357.63
670.06	41362.82
670.41	41253.9
670.76	41255.48
671.109	41275.37
671.459	41416.16
671.808	41126.22
672.157	41340
672.507	41092.55
672.856	41112.89
673.205	41224.3
673.554	41271.75
673.904	41106.56
674.253	41452.09
674.602	41132.1
674.951	40513.81
675.3	40501.6
675.649	41168.71
675.998	41082.61
676.346	40991.54
676.695	41114.47
677.044	40835.16
677.393	40790.18
677.741	41065.66
678.09	40916.51
678.438	40934.36
678.787	40840.58
679.135	40792.44
679.484	40520.81
679.832	40788.38
680.181	40490.53
680.529	40568.95
680.877	40387.48
681.225	40463.19
681.573	40616.18
681.922	40352.68
682.27	40299.35
682.618	40290.54
682.966	40236.98
683.314	40185.91
683.661	40324.89
684.009	39916.08
684.357	39893.03
684.705	39729.65
685.053	39881.96
685.4	39597.45
685.748	39574.85
686.095	39602.42
686.443	39270.22
686.79	39227.51
687.138	39393.16
687.485	39204.92
687.832	39090.34
688.18	39051.7
688.527	38840.41
688.874	38823.46
689.221	38711.37
689.568	38622.56
689.915	38335.79
690.262	38518.38
690.609	38411.94
690.956	38153.42
691.303	38153.42
691.65	37906.19
691.997	37838.85
692.344	37643.6
692.69	37609.03
693.037	37652.64
693.383	37275.02
693.73	37318.41
694.077	37092.2
694.423	37032.77
694.769	36908.25
695.116	36770.63
695.462	36608.83
695.808	36453.35
696.155	36561.37
696.501	36250.42
696.847	36278.66
697.193	36025.56
697.539	35911.67
697.885	35607.95
698.231	35522.53
698.577	35555.29
698.923	35524.56
699.269	35169.09
699.614	34898.36
699.96	34930.45
700.306	34913.95
700.651	34764.13
700.997	34609.78
701.342	34558.03
701.688	34435.1
702.033	34244.82
702.379	34259.96
702.724	34085.95
703.069	34050.02
703.415	33633.54
703.76	33597.61
704.105	33496.82
704.45	33415.24
704.795	33275.58
705.14	33109.71
705.485	33141.12
705.83	33001.01
706.175	33043.72
706.52	32876.49
706.865	32695.93
707.209	32606.67
707.554	32574.13
707.899	32445.32
708.243	32486.67
708.588	32304.31
708.932	32133.46
709.277	32203.29
709.621	32038.55
709.966	31665.23
710.31	31827.03
710.654	31565.12
710.998	31888.72
711.342	31744.77
711.687	31568.73
712.031	31512.69
712.375	31533.7
712.719	31327.16
713.063	31312.69
713.407	31409.87
713.75	31198.57
714.094	31364.22
714.438	31104.56
714.782	31055.75
715.125	30942.31
715.469	31337.1
715.812	30833.16
716.156	30928.3
716.499	30925.13
716.843	30815.31
717.186	30653.5
717.53	30979.37
717.873	30907.73
718.216	30849.88
718.559	30569.21
718.902	30495.77
719.246	30527.86
719.589	30559.95
719.932	30402.66
720.275	30476.56
720.617	30345.04
720.96	30460.06
721.303	30534.86
721.646	30307.3
721.989	30351.81
722.331	30419.38
722.674	30378.93
723.016	30361.76
723.359	30106.4
723.701	30313.17
724.044	30270.91
724.386	30107.75
724.729	30262.55
725.071	30073.18
725.413	30318.37
725.755	30133.97
726.097	30130.8
726.439	30000.19
726.782	30053.97
727.124	30293.96
727.465	30119.73
727.807	30235.66
728.149	30273.17
728.491	30086.74
728.833	30261.65
729.175	30261.87
729.516	30230.69
729.858	30124.93
730.199	30347.3
730.541	30362.89
730.882	30263.68
731.224	30296.68
731.565	30331.7
731.906	30368.31
732.248	30465.03
732.589	30330.57
732.93	30248.99
733.271	30489.66
733.612	30334.64
733.953	30442.89
734.294	30337.13
734.635	30324.47
734.976	30660.06
735.317	30501.19
735.658	30580.74
735.999	30441.53
736.339	30661.41
736.68	30843.33
737.021	30812.37
737.361	30767.17
737.702	31001.97
738.042	30890.11
738.383	30896.66
738.723	31145.24
739.063	30908.41
739.404	31187.05
739.744	31190.66
740.084	31164.9
740.424	31312.92
740.764	31349.3
741.104	31637.88
741.444	31344.11
741.784	31380.49
742.124	31615.06
742.464	31580.26
742.804	31736.86
743.143	31743.19
743.483	31888.5
743.823	31822.06
744.162	32012.56
744.502	32109.96
744.841	32134.14
745.181	32432.89
745.52	32281.48
745.86	32464.3
746.199	32713.11
746.538	32657.74
746.877	32916.72
747.216	32867.45
747.556	33015.7
747.895	33163.04
748.234	33262.25
748.573	33282.81
748.911	33509.92
749.25	33611.16
749.589	33615.46
749.928	33991.95
750.267	34077.82
750.605	34113.07
750.944	34203.24
751.283	34323.69
751.621	34576.56
751.96	34613.17
752.298	34779.27
752.636	34984.69
752.975	34981.75
753.313	35121.86
753.651	35466.93
753.989	35348.29
754.327	35471.91
754.666	35478.01
755.004	35842.52
755.342	35968.62
755.679	36114.83
756.017	35936.53
756.355	36240.47
756.693	36350.98
757.031	36575.61
757.368	36376.52
757.706	36779.67
758.044	36683.17
758.381	36853.34
758.719	36935.37
759.056	37130.39
759.394	37276.6
759.731	37109.83
760.068	37329.03
760.405	37420.56
760.743	37438.86
761.08	37722.69
761.417	37444.28
761.754	37519.54
762.091	37649.25
762.428	37747.33
762.765	37677.5
763.102	37917.49
763.438	37834.33
763.775	37739.64
764.112	37816.03
764.449	37904.38
764.785	37955.91
765.122	37883.82
765.458	37781
765.795	37983.93
766.131	37959.75
766.467	37965.17
766.804	37914.1
767.14	37779.64
767.476	37964.72
767.812	37775.8
768.148	38113.19
768.485	37812.64
768.821	37692.64
769.157	37766.31
769.492	37745.52
769.828	37781.22
770.164	37527.22
770.5	37365.42
770.836	37605.86
771.171	37403.38
771.507	37486.09
771.842	37304.63
772.178	37263.72
772.513	37211.07
772.849	37133.33
773.184	37087.68
773.519	37093.11
773.855	36854.69
774.19	36954.13
774.525	36763.4
774.86	36801.59
775.195	36807.92
775.53	36532.67
775.865	36481.37
776.2	36274.15
776.535	36247.71
776.87	36203.86
777.205	35885
777.539	35899.01
777.874	36002.97
778.209	35468.29
778.543	35683.88
778.878	35488.63
779.212	35534.5
779.547	35324.57
779.881	35311.68
780.215	35086.38
780.55	35150.33
780.884	34801.64
781.218	34853.39
781.552	34846.61
781.886	34589.9
782.22	34575.88
782.554	34417.24
782.888	34172.28
783.222	34056.58
783.556	34081.66
783.889	34016.35
784.223	33716.02
784.557	33763.48
784.89	33766.41
785.224	33671.95
785.557	33335.92
785.891	33309.25
786.224	33319.19
786.558	33262.92
786.891	33069.26
787.224	32810.06
787.557	32790.17
787.891	32785.2
788.224	32623.39
788.557	32559.67
788.89	32429.27
789.223	32530.29
789.556	32164.87
789.888	32169.85
790.221	32095.27
790.554	31866.58
790.887	31803.08
791.219	31752.23
791.552	31705
791.884	31619.8
792.217	31622.97
792.549	31424.78
792.882	31049.88
793.214	31042.42
793.546	31137.33
793.879	30966.94
794.211	30661.19
794.543	30879.26
794.875	30748.41
795.207	30774.85
795.539	30572.6
795.871	30626.38
796.203	30505.94
796.535	30124.25
796.867	30341.87
797.198	29948.44
797.53	30008.77
797.862	29820.98
798.193	29954.09
798.525	29610.82
798.856	29854.2
799.188	29364.72
799.519	29291.73
799.85	29317.49
800.182	29185.97
800.513	29316.36
800.844	28901.68
801.175	29211.05
801.506	29060.1
801.837	28854.68
802.168	28863.49
802.499	28904.62
802.83	28591.41
803.161	28444.75
803.491	28533.33
803.822	28704.63
804.153	28313.45
804.483	28154.36
804.814	28144.87
805.145	28094.7
805.475	28093.34
805.805	28041.37
806.136	27992.55
806.466	27941.26
806.796	27705.78
807.126	27708.72
807.457	27737.65
807.787	27665.78
808.117	27543.08
808.447	27458.33
808.777	27536.3
809.107	27327.04
809.436	27283.2
809.766	27122.75
810.096	27192.58
810.426	27053.37
810.755	27121.17
811.085	27054.73
811.414	27024.9
811.744	26892.92
812.073	26956.2
812.403	26789.2
812.732	26506.72
813.061	26841.17
813.39	26456.55
813.719	26445.93
814.049	26657
814.378	26479.15
814.707	26246.16
815.036	26309.89
815.365	26184.69
815.693	25993.29
816.022	26037.8
816.351	25860.86
816.68	25789.22
817.008	26016.79
817.337	25596.69
817.665	25690.24
817.994	25739.51
818.322	25725.72
818.651	25642.56
818.979	25566.63
819.307	25574.31
819.636	25461.1
819.964	25419.52
820.292	25437.14
820.62	25299.07
820.948	25397.82
821.276	25561.88
821.604	25262.91
821.932	25649.79
822.259	25365.96
822.587	25449.8
822.915	25398.27
823.243	25383.58
823.57	25270.82
823.898	25460.19
824.225	25324.15
824.553	25297.48
824.88	25393.08
825.207	25521.21
825.535	25195.34
825.862	25485.95
826.189	25338.61
826.516	25541.77
826.843	25466.97
827.17	25528.44
827.497	25573.64
827.824	25507.2
828.151	25563.92
828.478	25459.06
828.805	25571.15
829.131	25471.94
829.458	25412.28
829.785	25235.11
830.111	25391.04
830.438	25537.25
830.764	25410.7
831.09	25525.5
831.417	25367.54
831.743	25585.16
832.069	25525.28
832.395	25338.84
832.722	25480.76
833.048	25279.41
833.374	25351.49
833.7	25243.25
834.026	25436.92
834.351	25223.14
834.677	25313.76
835.003	25330.25
835.329	25269.91
835.654	25229.69
835.98	25109.01
836.306	25303.81
836.631	25032.63
836.956	25297.03
837.282	25150.82
837.607	25090.94
837.932	25024.5
838.258	24961.67
838.583	25051.62
838.908	24937.49
839.233	24968
839.558	24874.9
839.883	24871.96
840.208	24697.05
840.533	24801.9
840.858	24729.82
841.182	24672.87
841.507	24777.5
841.832	24591.29
842.156	24560.55
842.481	24568.92
842.805	24404.17
843.13	24384.06
843.454	24375.7
843.778	24293.9
844.103	24249.6
844.427	24295.03
844.751	24171.41
845.075	24169.6
845.399	24073.56
845.723	23957.63
846.047	23921.25
846.371	23802.61
846.695	23671.09
847.019	23611.43
847.343	23528.94
847.666	23385.22
847.99	23274.94
848.313	23168.27
848.637	23270.65
848.96	23149.29
849.284	23142.06
849.607	22879.47
849.931	22865.23
850.254	22787.27
850.577	22685.12
850.9	22440.38
851.223	22413.04
851.546	22365.58
851.869	22270.9
852.192	22459.37
852.515	22170.56
852.838	22090.56
853.161	22085.37
853.483	21892.83
853.806	21977.57
854.129	21736.45
854.451	21836.78
854.774	21541.2
855.096	21498.26
855.419	21517.47
855.741	21423.69
856.063	21296.01
856.385	21321.77
856.708	21135.33
857.03	21136.24
857.352	21140.53
857.674	21050.59
857.996	20931.72
858.318	20759.52
858.64	20882.91
858.961	20712.07
859.283	20663.93
859.605	20551.39
859.926	20586.42
860.248	20577.16
860.57	20396.37
860.891	20523.6
861.212	20261.46
861.534	20357.28
861.855	20295.58
862.176	20302.59
862.498	20349.82
862.819	20210.84
863.14	20188.47
863.461	20099.66
863.782	20083.84
864.103	20153.21
864.424	20063.05
864.745	19996.38
865.065	19944.4
865.386	19806.33
865.707	19887.23
866.027	19880.9
866.348	19903.28
866.668	19760
866.989	19642.27
867.309	19564.53
867.63	19578.54
867.95	19690.17
868.27	19604.07
868.59	19592.32
868.91	19550.74
869.23	19527.47
869.55	19454.47
869.87	19402.5
870.19	19355.95
870.51	19407.02
870.83	19398.2
871.15	19308.26
871.469	19183.52
871.789	19288.6
872.109	19286.12
872.428	19163.63
872.748	19242.5
873.067	19174.71
873.386	19212.67
873.706	19195.95
874.025	19085.44
874.344	18955.5
874.663	18946.47
874.982	18976.97
875.301	18902.17
875.62	18862.4
875.939	18782.4
876.258	18791.89
876.577	18804.77
876.896	18718
877.214	18723.65
877.533	18703.08
877.852	18666.7
878.17	18605.23
878.489	18648.17
878.807	18706.92
879.125	18630.77
879.444	18419.7
879.762	18498.34
880.08	18547.38
880.398	18458.79
880.716	18486.14
881.034	18425.35
881.352	18330.66
881.67	18311.68
881.988	18372.69
882.306	18226.71
882.624	18164.34
882.941	18079.14
883.259	18104.68
883.577	18076.88
883.894	18052.93
884.212	17889.54
884.529	17899.94
884.846	17831.47
885.164	17772.48
885.481	17843.67
885.798	17754.41
886.115	17666.5
886.432	17686.84
886.75	17675.99
887.067	17688.65
887.383	17637.12
887.7	17517.12
888.017	17461.98
888.334	17394.42
888.651	17292.95
888.967	17284.59
889.284	17335.43
889.6	17148.32
889.917	17126.85
890.233	17261.31
890.55	17070.81
890.866	17062.9
891.182	17024.48
891.498	16950.13
891.815	16842.34
892.131	16944.94
892.447	16773.41
892.763	16825.39
893.079	16813.19
893.395	16675.11
893.71	16661.78
894.026	16539.07
894.342	16469.47
894.657	16407.77
894.973	16388.79
895.289	16346.53
895.604	16242.58
895.92	16278.51
896.235	16155.58
896.55	16174.79
896.865	16109.7
897.181	15983.15
897.496	15932.31
897.811	15912.87
898.126	15885.98
898.441	15904.06
898.756	15783.38
899.071	15758.98
899.386	15671.3
899.7	15623.16
900.015	15544.07
900.33	15368.71
900.644	15421.36
900.959	15347.46
901.273	15243.29
901.588	15197.64
901.902	15162.61
902.216	15161.03
902.531	15063.63
902.845	14987.47
903.159	14897.31
903.473	14850.53
903.787	14851.66
904.101	14674.49
904.415	14818.66
904.729	14655.5
905.042	14613.25
905.356	14481.5
905.67	14552
905.984	14509.75
906.297	14412.57
906.611	14345.46
906.924	14335.06
907.237	14279.02
907.551	14360.82
907.864	14160.83
908.177	14102.3
908.491	14077.67
908.804	13973.26
909.117	13940.72
909.43	13756.55
909.743	13790.44
910.056	13775.08
910.368	13750.67
910.681	13637.68
910.994	13657.34
911.307	13604.68
911.619	13366.27
911.932	13460.96
912.244	13284.47
912.557	13254.64
912.869	13241.98
913.181	13134.19
913.494	13127.64
913.806	13067.75
914.118	13011.71
914.43	12961.76
914.742	12935.32
915.054	12832.5
915.366	12863.46
915.678	12666.18
915.99	12744.14
916.302	12573.75
916.613	12611.26
916.925	12592.28
917.236	12563.58
917.548	12542.79
917.859	12496.01
918.171	12370.14
918.482	12261.9
918.794	12274.55
919.105	12192.74
919.416	12128.34
919.727	12082.46
920.038	12062.13
920.349	12017.61
920.66	11861.91
920.971	11913.2
921.282	11849.02
921.593	11853.09
921.903	11664.85
922.214	11696.49
922.525	11634.57
922.835	11592.53
923.146	11477.51
923.456	11504.85
923.767	11412.43
924.077	11387.79
924.387	11308.25
924.697	11336.04
925.008	11259.21
925.318	11203.39
925.628	11223.05
925.938	11080.46
926.248	11033.9
926.558	10984.41
926.867	10898.09
927.177	10887.24
927.487	10845.21
927.796	10753.69
928.106	10819.9
928.416	10740.58
928.725	10684.08
929.034	10609.51
929.344	10668.72
929.653	10549.17
929.962	10476.18
930.271	10460.59
930.581	10353.24
930.89	10341.04
931.199	10283.42
931.508	10298.78
931.817	10227.6
932.125	10232.8
932.434	10168.16
932.743	10115.06
933.051	10031.22
933.36	10038.45
933.669	9944.67
933.977	9881.84
934.286	9887.04
934.594	9790.55
934.902	9762.3
935.21	9678.01
935.519	9722.53
935.827	9678.01
936.135	9630.78
936.443	9518.46
936.751	9450.44
937.059	9499.93
937.367	9372.03
937.674	9455.87
937.982	9330.67
938.29	9308.75
938.597	9256.1
938.905	9185.59
939.213	9209.55
939.52	9198.7
939.827	9180.62
940.135	9056.78
940.442	9035.09
940.749	9052.04
941.056	9006.16
941.363	8955.09
941.67	8855.43
941.977	8844.13
942.284	8804.36
942.591	8804.81
942.898	8773.63
943.205	8727.07
943.511	8680.52
943.818	8672.38
944.125	8583.12
944.431	8537.02
944.738	8518.26
945.044	8489.11
945.35	8470.13
945.657	8419.96
945.963	8353.75
946.269	8323.24
946.575	8304.71
946.881	8235.11
947.187	8220.65
947.493	8196.01
947.799	8183.13
948.105	8107.65
948.41	8068.79
948.716	8037.83
949.022	7952.4
949.327	7976.58
949.633	7868.56
949.938	7906.98
950.244	7884.38
950.549	7809.36
950.854	7762.58
951.16	7726.42
951.465	7703.14
951.77	7684.61
952.075	7659.76
952.38	7652.3
952.685	7650.04
952.99	7558.06
953.294	7520.55
953.599	7520.78
953.904	7428.35
954.209	7421.34
954.513	7414.34
954.818	7375.47
955.122	7368.01
955.426	7357.62
955.731	7240.56
956.035	7214.57
956.339	7151.52
956.643	7110.39
956.948	7069.49
957.252	7081.69
957.556	7057.51
957.86	7039.89
958.163	7012.09
958.467	6963.96
958.771	6957.18
959.075	6922.83
959.378	6794.92
959.682	6844.41
959.985	6784.07
960.289	6754.02
960.592	6755.37
960.896	6709.5
961.199	6714.02
961.502	6676.73
961.805	6601.7
962.108	6547.7
962.411	6532.78
962.714	6465.89
963.017	6474.25
963.32	6457.53
963.623	6469.28
963.926	6434.7
964.228	6400.58
964.531	6355.61
964.833	6354.93
965.136	6298.44
965.438	6257.31
965.741	6182.51
966.043	6213.47
966.345	6147.71
966.648	6173.69
966.95	6136.41
967.252	6059.35
967.554	6119.91
967.856	6063.64
968.158	6086.92
968.46	5984.55
968.761	6009.18
969.063	5947.94
969.365	5949.74
969.666	5914.94
969.968	5828.62
970.269	5808.73
970.571	5809.18
970.872	5784.55
971.174	5736.42
971.475	5710.2
971.776	5712.24
972.077	5720.6
972.378	5638.79
972.679	5642.18
972.98	5617.1
973.281	5563.77
973.582	5553.37
973.883	5518.12
974.183	5544.56
974.484	5520.6
974.785	5460.04
975.085	5396.54
975.386	5411.45
975.686	5360.83
975.986	5347.5
976.287	5366.71
976.587	5312.7
976.887	5300.95
977.187	5277.9
977.487	5277.67
977.787	5210.56
978.087	5201.52
978.387	5163.55
978.687	5151.35
978.987	5116.55
979.286	5138.24
979.586	5102.08
979.885	5025.7
980.185	5009.2
980.484	4961.07
980.784	4986.15
981.083	4935.53
981.382	4950
981.682	4924.23
981.981	4855.99
982.28	4883.11
982.579	4844.69
982.878	4863.45
983.177	4824.8
983.475	4802.43
983.774	4721.3
984.073	4753.84
984.372	4669.1
984.67	4721.08
984.969	4675.2
985.267	4646.95
985.566	4599.95
985.864	4618.03
986.162	4521.76
986.461	4567.86
986.759	4549.1
987.057	4486.51
987.355	4504.36
987.653	4463.91
987.951	4418.49
988.249	4398.37
988.547	4419.16
988.844	4351.37
989.142	4386.17
989.44	4363.8
989.737	4343.23
990.035	4317.25
990.332	4297.36
990.63	4251.48
990.927	4227.08
991.224	4218.26
991.521	4237.02
991.819	4152.05
992.116	4130.36
992.413	4125.16
992.71	4127.65
993.006	4130.36
993.303	4098.95
993.6	4047.65
993.897	4026.63
994.193	4035.67
994.49	3990.93
994.787	3976.01
995.083	3973.53
995.379	3921.78
995.676	3888.1
995.972	3923.13
996.268	3849.23
996.565	3836.81
996.861	3799.97
997.157	3819.86
997.453	3822.34
997.749	3774.21
998.044	3756.13
998.34	3742.57
998.636	3716.58
998.932	3707.54
999.227	3707.77
999.523	3655.79
999.818	3630.03
1000.114	3597.04
1000.409	3595.46
1000.704	3519.75
1001	3566.08
1001.295	3496.7
1001.59	3538.06
1001.885	3504.39
1002.18	3473.88
1002.475	3477.04
1002.77	3401.56
1003.065	3424.16
1003.359	3369.02
1003.654	3362.47
1003.949	3387.33
1004.243	3370.15
1004.538	3275.24
1004.832	3274.11
1005.127	3289.48
1005.421	3259.65
1005.715	3203.83
1006.009	3242.47
1006.304	3179.2
1006.598	3162.25
1006.892	3180.55
1007.186	3105.75
1007.48	3138.97
1007.773	3115.92
1008.067	3118.18
1008.361	3063.49
1008.655	3072.98
1008.948	3038.41
1009.242	3037.73
1009.535	2978.75
1009.829	2993.66
1010.122	2917.51
1010.415	2978.52
1010.708	2925.19
1011.001	2901.46
1011.295	2875.93
1011.588	2818.08
1011.881	2837.96
1012.173	2837.06
1012.466	2816.49
1012.759	2798.87
1013.052	2781.24
1013.344	2765.42
1013.637	2771.07
1013.93	2746.21
1014.222	2714.35
1014.514	2700.11
1014.807	2668.25
1015.099	2650.62
1015.391	2646.78
1015.683	2641.58
1015.976	2606.1
1016.268	2599.55
1016.56	2555.26
1016.851	2547.8
1017.143	2548.7
1017.435	2531.98
1017.727	2505.99
1018.018	2501.93
1018.31	2483.62
1018.602	2430.97
1018.893	2421.25
1019.185	2414.92
1019.476	2399.1
1019.767	2395.71
1020.058	2386
1020.35	2330.4
1020.641	2324.3
1020.932	2301.71
1021.223	2313.23
1021.514	2296.73
1021.804	2281.82
1022.095	2259.22
1022.386	2252.67
1022.677	2245.44
1022.967	2196.4
1023.258	2173.35
1023.548	2177.19
1023.839	2158.21
1024.129	2142.39
1024.419	2157.75
1024.709	2108.72
1025	2067.59
1025.29	2086.8
1025.58	2047.7
1025.87	2046.57
1026.16	2033.46
1026.449	1992.56
1026.739	1999.34
1027.029	1970.87
1027.319	1987.81
1027.608	1963.63
1027.898	1979.45
1028.187	1929.74
1028.477	1954.82
1028.766	1892.9
1029.055	1897.87
1029.344	1905.78
1029.634	1882.06
1029.923	1865.56
1030.212	1826.92
1030.501	1840.02
1030.79	1804.99
1031.078	1790.76
1031.367	1787.59
1031.656	1814.49
1031.945	1761.61
1032.233	1787.59
1032.522	1724.09
1032.81	1718.67
1033.099	1702.17
1033.387	1686.81
1033.675	1670.08
1033.963	1691.1
1034.251	1695.17
1034.54	1639.35
1034.828	1651.1
1035.116	1596.41
1035.403	1621.27
1035.691	1612.23
1035.979	1578.11
1036.267	1575.62
1036.554	1558.9
1036.842	1597.99
1037.129	1548.28
1037.417	1522.06
1037.704	1524.78
1037.992	1513.03
1038.279	1510.09
1038.566	1487.26
1038.853	1487.26
1039.14	1487.26
