Data from 277_FLMS001491_005.txt Node
Date: Thu Apr 19 16:45:07 BST 2018
User: hsy
Spectrometer: FLMS00149
Trigger mode: 0
Integration Time (sec): 1.000000E-2
Scans to average: 10
Electric dark correction enabled: true
Nonlinearity correction enabled: false
Boxcar width: 0
XAxis mode: Wavelengths
Number of Pixels in Spectrum: 2048
>>>>>Begin Spectral Data<<<<<
341.393	-5.14
341.776	-5.14
342.16	-5.14
342.543	-53.73
342.927	-61.86
343.31	-89.21
343.693	-83.78
344.077	-77.68
344.46	-73.39
344.843	-51.92
345.226	-27.97
345.61	-30.68
345.993	-6.72
346.376	10
346.759	15.2
347.142	41.64
347.525	40.06
347.908	44.58
348.291	83.9
348.674	90.45
349.057	115.53
349.44	123.67
349.823	139.49
350.206	187.85
350.588	219.03
350.971	244.57
351.354	242.31
351.737	271.01
352.119	276.66
352.502	275.98
352.884	316.66
353.267	297.45
353.65	328.86
354.032	335.41
354.414	336.54
354.797	341.97
355.179	356.66
355.562	345.13
355.944	362.98
356.326	368.18
356.709	361.63
357.091	382.87
357.473	377.67
357.855	366.83
358.238	387.84
358.62	367.28
359.002	382.19
359.384	372.02
359.766	376.54
360.148	361.4
360.53	368.18
360.912	386.49
361.294	375.41
361.676	350.56
362.057	347.39
362.439	372.02
362.821	349.88
363.203	375.87
363.584	372.7
363.966	368.18
364.348	358.47
364.729	355.3
365.111	363.44
365.493	346.94
365.874	341.52
366.256	362.08
366.637	381.29
367.019	357.34
367.4	371.35
367.781	349.65
368.163	358.92
368.544	360.5
368.925	339.93
369.306	355.08
369.688	368.18
370.069	345.13
370.45	370.22
370.831	354.4
371.212	361.18
371.593	373.15
371.974	370.22
372.355	364.79
372.736	359.37
373.117	388.75
373.498	365.24
373.879	379.71
374.26	384.23
374.641	370.44
375.021	377.67
375.402	386.71
375.783	394.17
376.163	409.76
376.544	403.66
376.925	384
377.305	382.42
377.686	397.79
378.066	389.42
378.447	407.73
378.827	408.18
379.208	431.68
379.588	414.96
379.968	391.91
380.349	403.44
380.729	404.34
381.109	417.67
381.489	410.67
381.87	406.15
382.25	434.62
382.63	414.28
383.01	430.33
383.39	438.01
383.77	425.36
384.15	426.71
384.53	425.13
384.91	449.31
385.29	445.69
385.67	444.79
386.049	453.15
386.429	451.34
386.809	450.89
387.189	460.38
387.568	467.39
387.948	451.34
388.328	477.56
388.707	454.28
389.087	466.94
389.466	480.27
389.846	488.86
390.225	482.08
390.605	487.28
390.984	495.64
391.363	512.13
391.743	508.52
392.122	517.56
392.501	512.36
392.881	506.71
393.26	533.15
393.639	523.21
394.018	539.7
394.397	532.47
394.776	551.91
395.155	565.47
395.534	556.65
395.913	576.31
396.292	568.86
396.671	562.08
397.05	575.63
397.429	540.61
397.808	584.67
398.186	597.1
398.565	601.62
398.944	609.31
399.323	605.92
399.701	615.18
400.08	621.28
400.458	610.21
400.837	608.85
401.215	644.79
401.594	625.58
401.972	662.41
402.351	665.12
402.729	680.72
403.107	666.25
403.486	662.41
403.864	689.76
404.242	685.46
404.62	681.17
404.999	707.16
405.377	735.4
405.755	733.6
406.133	744.67
406.511	758.91
406.889	760.49
407.267	776.53
407.645	816.31
408.023	812.01
408.401	822.18
408.779	814.5
409.156	856.31
409.534	859.02
409.912	863.08
410.29	913.48
410.667	925
411.045	932.69
411.422	927.49
411.8	980.6
412.178	986.47
412.555	1006.58
412.933	1028.28
413.31	1033.7
413.687	1059.01
414.065	1086.36
414.442	1085
414.819	1103.53
415.197	1141.72
415.574	1130.42
415.951	1178.56
416.328	1155.51
416.705	1205.22
417.082	1198.9
417.46	1221.49
417.837	1261.49
418.214	1258.33
418.591	1279.57
418.967	1297.42
419.344	1299.68
419.721	1346.69
420.098	1322.73
420.475	1365.67
420.852	1387.82
421.228	1384.43
421.605	1426.91
421.982	1400.92
422.358	1448.61
422.735	1464.88
423.111	1482.5
423.488	1507.81
423.864	1529.51
424.241	1552.78
424.617	1560.69
424.994	1572.9
425.37	1595.27
425.746	1619.67
426.123	1640.24
426.499	1638.88
426.875	1688.15
427.251	1708.03
427.627	1744.19
428.003	1742.84
428.379	1775.15
428.756	1814.47
429.132	1829.84
429.507	1877.97
429.883	1908.25
430.259	1927.01
430.635	1922.94
431.011	1944.19
431.387	2009.5
431.763	2029.16
432.138	2061.7
432.514	2106.67
432.89	2103.28
433.265	2138.53
433.641	2179.21
434.016	2201.58
434.392	2255.59
434.767	2291.97
435.143	2305.98
435.518	2336.04
435.894	2374.91
436.269	2425.08
436.644	2465.08
437.02	2531.52
437.395	2513.89
437.77	2545.07
438.145	2562.7
438.52	2580.1
438.895	2624.62
439.271	2666.65
439.646	2651.29
440.021	2741.45
440.395	2741.91
440.77	2691.74
441.145	2755.01
441.52	2814.67
441.895	2809.47
442.27	2867.78
442.645	2846.76
443.019	2916.14
443.394	2900.55
443.769	2922.24
444.143	2960.43
444.518	2983.93
444.892	2959.98
445.267	2976.7
445.641	3053.08
446.016	3053.76
446.39	3103.93
446.764	3155.68
447.139	3103.48
447.513	3148.67
447.887	3158.84
448.262	3175.11
448.636	3192.74
449.01	3220.31
449.384	3287.88
449.758	3294.66
450.132	3363.58
450.506	3378.5
450.88	3412.17
451.254	3421.21
451.628	3477.93
452.002	3525.16
452.376	3571.26
452.75	3541.66
453.123	3593.63
453.497	3659.4
453.871	3685.61
454.244	3744.14
454.618	3808.77
454.992	3866.85
455.365	3868.66
455.739	3922.89
456.112	3999.27
456.486	4087.63
456.859	4100.29
457.232	4152.94
457.606	4215.99
457.979	4275.2
458.352	4305.71
458.725	4379.6
459.099	4402.43
459.472	4470.45
459.845	4557.45
460.218	4596.77
460.591	4632.48
460.964	4702.53
461.337	4742.98
461.71	4861.17
462.083	4925.12
462.456	4950.66
462.829	4999.25
463.201	5041.05
463.574	5041.28
463.947	5140.26
464.32	5261.16
464.692	5274.95
465.065	5281.27
465.438	5383.64
465.81	5436.98
466.183	5487.14
466.555	5600.59
466.928	5710.41
467.3	5679.46
467.672	5774.82
468.045	5882.84
468.417	5890.3
468.789	5959.22
469.161	6032.21
469.534	6120.12
469.906	6213
470.278	6286.9
470.65	6351.08
471.022	6481.69
471.394	6561.69
471.766	6634.91
472.138	6694.8
472.51	6856.6
472.882	6977.73
473.253	6986.31
473.625	7118.29
473.997	7267.66
474.369	7313.31
474.74	7391.73
475.112	7499.75
475.484	7645.96
475.855	7756.24
476.227	7871.49
476.598	8029.68
476.97	8154.19
477.341	8271.48
477.713	8366.39
478.084	8441.87
478.455	8735.65
478.827	8777.9
479.198	9000.95
479.569	8999.82
479.94	9285.46
480.311	9336.31
480.682	9589.41
481.053	9722.74
481.424	9896.07
481.795	9976.97
482.166	10134.48
482.537	10269.62
482.908	10445.21
483.279	10605.43
483.65	10843.84
484.021	11001.35
484.391	11049.71
484.762	11228.91
485.133	11307.33
485.503	11479.75
485.874	11737.37
486.244	11812.18
486.615	12114.31
486.985	12199.51
487.356	12384.14
487.726	12476.56
488.097	12841.53
488.467	12878.59
488.837	13112.93
489.207	13286.49
489.578	13460.04
489.948	13612.81
490.318	13821.84
490.688	13786.36
491.058	14148.16
491.428	14186.58
491.798	14299.79
492.168	14596.73
492.538	14677.41
492.908	14864.07
493.278	15040.79
493.648	15028.36
494.017	15325.98
494.387	15407.33
494.757	15466.54
495.126	15723.94
495.496	15645.75
495.866	15843.26
496.235	15958.05
496.605	16180.65
496.974	16168.9
497.344	16364.82
497.713	16421.32
498.082	16562.56
498.452	16626.06
498.821	16759.16
499.19	16830.35
499.559	16880.29
499.928	16948.99
500.298	17098.82
500.667	17250.9
501.036	17157.12
501.405	17384.01
501.774	17340.62
502.143	17576.77
502.512	17550.56
502.88	17751
503.249	17752.36
503.618	17877.55
503.987	18005.46
504.356	18054.05
504.724	18124.33
505.093	18274.38
505.462	18324.77
505.83	18437.09
506.199	18635.72
506.567	18794.36
506.936	18728.6
507.304	18878.66
507.672	18997.07
508.041	19102.61
508.409	19123.4
508.777	19383.73
509.145	19446.32
509.514	19466.89
509.882	19581.91
510.25	19763.15
510.618	19866.2
510.986	19831.63
511.354	20041.56
511.722	20072.3
512.09	20322.91
512.458	20141
512.826	20470.7
513.193	20566.52
513.561	20627.54
513.929	20669.12
514.297	20901.65
514.664	21041.54
515.032	21097.13
515.4	21311.13
515.767	21312.49
516.135	21409.21
516.502	21387.97
516.869	21782.53
517.237	21834.96
517.604	21739.82
517.972	22167.16
518.339	22219.81
518.706	22328.51
519.073	22362.86
519.44	22458.9
519.808	22735.5
520.175	22789.74
520.542	23019.79
520.909	23170.07
521.276	23186.11
521.643	23421.81
522.009	23503.85
522.376	23635.59
522.743	23783.61
523.11	23952.65
523.477	24253.66
523.843	24260.66
524.21	24481.22
524.577	24621.1
524.943	24777.94
525.31	24854.77
525.676	25039.85
526.043	25266.51
526.409	25366.17
526.776	25586.28
527.142	25622.21
527.508	25794.41
527.874	25952.82
528.241	26068.52
528.607	26207.95
528.973	26431.9
529.339	26359.36
529.705	26631.22
530.071	26765
530.437	26971.1
530.803	27051.55
531.169	27086.12
531.535	27170.42
531.901	27252.22
532.267	27492.67
532.632	27684.07
532.998	27638.2
533.364	27815.82
533.73	27760.23
534.095	27971.07
534.461	27972.65
534.826	28046.1
535.192	28212.42
535.557	28368.58
535.923	28329.03
536.288	28484.28
536.653	28515.69
537.019	28474.56
537.384	28613.99
537.749	28678.17
538.114	28646.76
538.479	28589.59
538.845	28680.66
539.21	28655.12
539.575	28755.23
539.94	28711.39
540.305	28940.31
540.67	28937.15
541.034	28949.13
541.399	28946.87
541.764	29100.76
542.129	29017.15
542.494	29087.88
542.858	29210.59
543.223	29130.82
543.587	29216.24
543.952	29246.07
544.316	29268.89
544.681	29143.7
545.045	29254.65
545.41	29310.25
545.774	29245.84
546.138	29292.17
546.503	29364.48
546.867	29416.68
547.231	29448.77
547.595	29478.6
547.959	29559.28
548.324	29640.63
548.688	29545.04
549.052	29623.01
549.416	29422.11
549.779	29501.88
550.143	29568.54
550.507	29677.24
550.871	29685.38
551.235	29579.39
551.599	29833.17
551.962	29686.51
552.326	29749.78
552.689	29759.73
553.053	29529.9
553.417	29717.69
553.78	29859.38
554.143	29917.69
554.507	29860.74
554.87	29984.58
555.234	30169.21
555.597	29761.99
555.96	30020.06
556.323	30091.47
556.686	30069.1
557.05	30240.39
557.413	30110
557.776	30248.75
558.139	30434.96
558.502	30312.03
558.865	30347.96
559.228	30462.76
559.59	30472.25
559.953	30542.53
560.316	30742.07
560.679	30758.12
561.041	30833.14
561.404	30891.22
561.767	30943.88
562.129	30920.15
562.492	31156.75
562.854	31029.07
563.217	31114.72
563.579	31127.37
563.941	31260.7
564.304	31336.41
564.666	31620.47
565.028	31520.13
565.39	31623.86
565.753	31820.69
566.115	31677.42
566.477	31917.64
566.839	31963.51
567.201	32126.22
567.563	32001.47
567.925	32234.69
568.287	32365.53
568.648	32335.03
569.01	32511.97
569.372	32714.9
569.734	32709.03
570.095	32890.49
570.457	32991.73
570.819	33021.56
571.18	33050.03
571.542	33242.35
571.903	33291.84
572.265	33388.56
572.626	33438.95
572.987	33461.55
573.349	33702
573.71	33759.85
574.071	33794.65
574.432	33964.59
574.794	34161.64
575.155	34276.9
575.516	34150.57
575.877	34279.16
576.238	34295.2
576.599	34382.66
576.96	34574.51
577.32	34510.11
577.681	34630.11
578.042	34842.98
578.403	34846.6
578.763	34879.14
579.124	34962.53
579.485	35172.01
579.845	35234.61
580.206	35146.48
580.566	35233.71
580.927	35221.28
581.287	35482.06
581.648	35343.99
582.008	35629.18
582.368	35456.53
582.728	35605.22
583.089	35575.84
583.449	35645.67
583.809	35800.47
584.169	35910.07
584.529	35689.06
584.889	36154.13
585.249	35853.13
585.609	35807.93
585.969	36020.13
586.329	35957.53
586.688	36155.72
587.048	36115.27
587.408	36155.72
587.768	36168.15
588.127	36106.9
588.487	36166.79
588.846	36539.21
589.206	36151.42
589.565	36219.44
589.925	36523.84
590.284	36538.76
590.643	36593.67
591.003	36517.29
591.362	36981.68
591.721	36774.46
592.08	36845.19
592.44	36932.19
592.799	36886.32
593.158	36995.02
593.517	37066.43
593.876	37107.78
594.235	37055.13
594.593	37121.79
594.952	37151.17
595.311	37135.35
595.67	37336.48
596.029	37555.68
596.387	37615.34
596.746	37633.64
597.104	37540.76
597.463	37560.2
597.822	37981.66
598.18	37744.37
598.538	37833.41
598.897	38032.5
599.255	37885.39
599.613	38314.3
599.972	38090.35
600.33	38114.76
600.688	38159.96
601.046	38246.73
601.404	38397.46
601.762	38332.83
602.12	38632.04
602.478	38627.29
602.836	38529.44
603.194	38365.6
603.552	38552.49
603.91	38508.65
604.268	38777.57
604.625	38729.89
604.983	38941.18
605.341	38757.23
605.698	39100.72
606.056	39304.33
606.413	39083.77
606.771	39336.88
607.128	39140.5
607.485	39296.88
607.843	39422.52
608.2	39418.23
608.557	39585.46
608.914	39632.23
609.272	39856.18
609.629	39942.06
609.986	40173.92
610.343	40019.8
610.7	40250.52
611.057	40263.86
611.414	40075.84
611.771	40383.85
612.127	40384.53
612.484	40472.66
612.841	40579.1
613.198	40471.99
613.554	40589.27
613.911	40790.4
614.267	40798.53
614.624	40711.3
614.98	41012.76
615.337	41340.44
615.693	41128.01
616.05	41033.1
616.406	41308.8
616.762	41161.23
617.118	41362.36
617.475	41315.35
617.831	41481.9
618.187	41542.24
618.543	41451.62
618.899	41902.01
619.255	41729.35
619.611	41624.05
619.967	41814.78
620.323	41917.37
620.678	41858.62
621.034	41756.7
621.39	41872.63
621.746	41985.39
622.101	42280.98
622.457	41997.82
622.812	42268.1
623.168	42205.73
623.523	42169.57
623.879	42424.93
624.234	42138.38
624.589	42349.23
624.945	42263.35
625.3	42365.04
625.655	42368.66
626.01	42309.23
626.365	42440.07
626.72	42355.55
627.075	42345.38
627.43	42354.2
627.785	42386.06
628.14	42454.31
628.495	42555.55
628.85	42520.52
629.205	42291.6
629.559	42628.09
629.914	42326.4
630.269	42407.75
630.623	42283.69
630.978	42248.44
631.332	42392.39
631.687	42347.19
632.041	42294.31
632.396	42414.76
632.75	42273.75
633.104	42295.44
633.459	42125.73
633.813	41957.37
634.167	42046.63
634.521	42064.71
634.875	42113.53
635.229	41921.89
635.583	41831.72
635.937	41835.11
636.291	41918.5
636.645	41778.84
636.999	41702.69
637.352	41938.84
637.706	41510.83
638.06	41869.46
638.413	41649.36
638.767	41413.66
639.121	41648.45
639.474	41473.77
639.828	41546.99
640.181	41323.26
640.534	41594.9
640.888	41243.72
641.241	41109.94
641.594	41169.82
641.947	41352.64
642.301	41211.4
642.654	41183.15
643.007	41064.51
643.36	41317.84
643.713	41128.69
644.066	41293.43
644.419	41040.11
644.771	40679.44
645.124	40364.87
645.477	40310.63
645.83	40124.43
646.182	40112.9
646.535	40164.65
646.888	40188.15
647.24	40015.28
647.593	40289.84
647.945	40018.89
648.298	39998.33
648.65	39801.72
649.002	39823.87
649.355	39680.37
649.707	39679.69
650.059	39650.99
650.411	40118.78
650.763	40359.22
651.115	40931.86
651.467	40657.52
651.819	40742.04
652.171	40780.91
652.523	40695.26
652.875	40719.44
653.227	40598.54
653.578	40973.67
653.93	40629.95
654.282	40677.18
654.633	40549.27
654.985	40836.72
655.337	40735.48
655.688	40611.42
656.039	40941.8
656.391	40426.34
656.742	40672.89
657.094	40691.87
657.445	40743.17
657.796	40818.42
658.147	40671.3
658.498	40850.51
658.849	40861.13
659.2	40714.24
659.551	40713.79
659.902	40990.39
660.253	40864.07
660.604	40993.55
660.955	40792.2
661.306	41225.87
661.656	40884.18
662.007	40919.88
662.358	41132.31
662.708	40942.26
663.059	40910.39
663.409	40888.47
663.76	40998.75
664.11	41118.75
664.461	41143.61
664.811	41219.09
665.161	41026.1
665.511	41092.08
665.862	41115.81
666.212	41267.22
666.562	41235.58
666.912	41295.02
667.262	41036.72
667.612	41041.46
667.962	41198.07
668.312	41024.74
668.662	41326.43
669.011	41185.87
669.361	41165.75
669.711	41192.19
670.06	41227.22
670.41	41062.48
670.76	40960.56
671.109	41185.41
671.459	41041.01
671.808	41079.43
672.157	41223.38
672.507	40996.04
672.856	40971.86
673.205	41023.38
673.554	41182.25
673.904	41001.01
674.253	41219.76
674.602	40998.75
674.951	40482.83
675.3	40254.37
675.649	40788.14
675.998	41046.66
676.346	41057.51
676.695	40981.8
677.044	40636.05
677.393	40778.87
677.741	40728.48
678.09	40778.19
678.438	40517.41
678.787	40686.9
679.135	40554.02
679.484	40376.17
679.832	40616.16
680.181	40458.65
680.529	40296.62
680.877	40280.58
681.225	40199
681.573	40382.27
681.922	40107.48
682.27	40050.75
682.618	40044.2
682.966	39955.84
683.314	39944.99
683.661	39890.08
684.009	39761.95
684.357	39808.28
684.705	39575.97
685.053	39582.74
685.4	39340.94
685.748	39269.08
686.095	39402.86
686.443	39125.13
686.79	39123.77
687.138	39160.61
687.485	39092.81
687.832	38810.11
688.18	38920.39
688.527	38737.12
688.874	38655.76
689.221	38609.66
689.568	38371.25
689.915	38229.33
690.262	38109.11
690.609	38171.26
690.956	37865.05
691.303	37934.65
691.65	37656.24
691.997	37626.19
692.344	37436.13
692.69	37158.4
693.037	37395.01
693.383	36956.6
693.73	37094.9
694.077	36948.69
694.423	36863.27
694.769	36719.77
695.116	36631.86
695.462	36379.89
695.808	36238.65
696.155	36294.02
696.501	35956.63
696.847	36014.93
697.193	35735.61
697.539	35882.5
697.885	35508.28
698.231	35425.11
698.577	35308.73
698.923	35220.6
699.269	34854.73
699.614	34878.69
699.96	34634.4
700.306	34664
700.651	34578.58
700.997	34313.96
701.342	34206.61
701.688	34106.28
702.033	33974.76
702.379	34018.37
702.724	33718.72
703.069	33736.12
703.415	33299.97
703.76	33358.28
704.105	33370.03
704.45	33329.12
704.795	33098.85
705.14	32982.01
705.485	32947.66
705.83	32764.62
706.175	32772.08
706.52	32587.67
706.865	32555.36
707.209	32457.51
707.554	32315.36
707.899	32218.19
708.243	31979.1
708.588	32064.52
708.932	31781.59
709.277	31983.17
709.621	31803.51
709.966	31591.99
710.31	31661.6
710.654	31365.79
710.998	31560.81
711.342	31553.58
711.687	31337.76
712.031	31345.22
712.375	31138.45
712.719	31223.64
713.063	31112.23
713.407	31187.49
713.75	31004.44
714.094	30968.28
714.438	30983.42
714.782	30944.1
715.125	30666.37
715.469	30923.76
715.812	30619.36
716.156	30582.08
716.499	30570.78
716.843	30644.45
717.186	30484.23
717.53	30649.65
717.873	30559.7
718.216	30543.43
718.559	30488.07
718.902	30172.6
719.246	30330.33
719.589	30234.97
719.932	30134.86
720.275	30180.96
720.617	30218.47
720.96	30088.76
721.303	30197.45
721.646	30246.04
721.989	30075.65
722.331	30208.98
722.674	30081.75
723.016	30249.88
723.359	30098.25
723.701	30127.63
724.044	29991.36
724.386	29921.08
724.729	30127.17
725.071	30110.45
725.413	30014.63
725.755	29863.45
726.097	29913.85
726.439	29888.99
726.782	29943.68
727.124	30159.94
727.465	30072.03
727.807	29837.01
728.149	30071.58
728.491	29938.93
728.833	29917.91
729.175	29945.71
729.516	29959.27
729.858	29896.67
730.199	29960.85
730.541	30029.1
730.882	29957.01
731.224	29990.68
731.565	30009.44
731.906	30027.52
732.248	30063.67
732.589	30001.53
732.93	29882.43
733.271	30056.67
733.612	30107.97
733.953	30287.4
734.294	30209.43
734.635	30229.32
734.976	30347.96
735.317	30309.54
735.658	30301.63
735.999	30274.97
736.339	30189.77
736.68	30235.65
737.021	30489.42
737.361	30380.5
737.702	30594.05
738.042	30487.84
738.383	30700.72
738.723	30701.85
739.063	30592.7
739.404	30935.97
739.744	30870.21
740.084	30774.39
740.424	30933.25
740.764	30998.11
741.104	31186.13
741.444	31090.99
741.784	31061.16
742.124	31341.61
742.464	31285.79
742.804	31360.59
743.143	31421.83
743.483	31612.78
743.823	31499.12
744.162	31662.27
744.502	31826.11
744.841	31861.59
745.181	32017.52
745.52	31994.24
745.86	32238.76
746.199	32236.05
746.538	32349.71
746.877	32596.71
747.216	32712.87
747.556	32614.57
747.895	32898.4
748.234	32884.84
748.573	32978.85
748.911	32991.51
749.25	33182.01
749.589	33173.2
749.928	33491.83
750.267	33633.52
750.605	33623.58
750.944	33853.63
751.283	33906.06
751.621	34250.23
751.96	34050.91
752.298	34338.81
752.636	34466.27
752.975	34547.62
753.313	34751.23
753.651	34977.67
753.989	34841.17
754.327	35059.7
754.666	35056.54
755.004	35355.29
755.342	35526.35
755.679	35660.59
756.017	35630.98
756.355	36042.27
756.693	35968.83
757.031	36181.03
757.368	36209.5
757.706	36244.3
758.044	36371.08
758.381	36556.84
758.719	36478.87
759.056	36743.5
759.394	36750.73
759.731	36666.66
760.068	36909.14
760.405	36930.84
760.743	36939.65
761.08	37074.79
761.417	37197.72
761.754	37141.68
762.091	37327.89
762.428	37285.86
762.765	37261.9
763.102	37446.76
763.438	37365.63
763.775	37312.52
764.112	37514.32
764.449	37560.42
764.785	37449.69
765.122	37262.35
765.458	37394.33
765.795	37578.73
766.131	37618.73
766.467	37628.22
766.804	37323.59
767.14	37417.83
767.476	37370.83
767.812	37305.29
768.148	37529.24
768.485	37328.34
768.821	37268.68
769.157	37310.49
769.492	37324.95
769.828	37260.32
770.164	36937.62
770.5	37051.06
770.836	37157.5
771.171	36941.23
771.507	36838.86
771.842	36621.24
772.178	36811.74
772.513	36762.48
772.849	36606.55
773.184	36681.58
773.519	36686.1
773.855	36523.39
774.19	36384.18
774.525	36516.61
774.86	36317.75
775.195	36183.06
775.53	36033.01
775.865	35979.45
776.2	35696.52
776.535	35618.33
776.87	35661.49
777.205	35544.43
777.539	35386.92
777.874	35427.6
778.209	35213.59
778.543	35225.12
778.878	35106.03
779.212	35101.96
779.547	34772.93
779.881	34781.29
780.215	34625.13
780.55	34649.31
780.884	34448.64
781.218	34440.96
781.552	34387.63
781.886	34295.88
782.22	34058.6
782.554	33902.22
782.888	33658.15
783.222	33721.66
783.556	33440.08
783.889	33386.75
784.223	33313.98
784.557	33297.26
784.89	33333.19
785.224	33022.01
785.557	33032.63
785.891	32779.99
786.224	32883.71
786.558	32865.41
786.891	32568.24
787.224	32335.03
787.557	32235.37
787.891	32236.95
788.224	32128.7
788.557	32023.62
788.89	32027.01
789.223	31989.95
789.556	31857.52
789.888	31691.2
790.221	31592.67
790.554	31515.16
790.887	31440.59
791.219	31232.68
791.552	31209.41
791.884	31063.42
792.217	31105.68
792.549	30994.27
792.882	30757.67
793.214	30622.75
793.546	30640.38
793.879	30540.5
794.211	30278.13
794.543	30547.28
794.875	30366.49
795.207	30295.98
795.539	30058.02
795.871	30204.01
796.203	30055.76
796.535	29835.43
796.867	29727.64
797.198	29673.63
797.53	29667.75
797.862	29403.13
798.193	29324.03
798.525	29209.68
798.856	29347.99
799.188	28965.17
799.519	28974.44
799.85	28920.65
800.182	28833.2
800.513	29027.09
800.844	28475.47
801.175	28757.27
801.506	28693.99
801.837	28496.71
802.168	28489.02
802.499	28358.18
802.83	28327.9
803.161	28004.74
803.491	28159.77
803.822	28208.58
804.153	27951.19
804.483	27768.82
804.814	27683.17
805.145	27835.48
805.475	27872.32
805.805	27671.65
806.136	27736.05
806.466	27495.15
806.796	27353.91
807.126	27325.44
807.457	27200.47
807.787	27273.46
808.117	27190.08
808.447	26966.81
808.777	27199.12
809.107	26850.65
809.436	26808.84
809.766	26854.27
810.096	26860.37
810.426	26695.4
810.755	26760.26
811.085	26577.21
811.414	26596.87
811.744	26430.32
812.073	26479.36
812.403	26309.2
812.732	26201.63
813.061	26275.98
813.39	26012.71
813.719	26078.92
814.049	26292.92
814.378	26091.57
814.707	25892.48
815.036	25944.01
815.365	25702.43
815.693	25549.89
816.022	25617.01
816.351	25570.68
816.68	25437.13
817.008	25503.79
817.337	25243.23
817.665	25415.66
817.994	25255.66
818.322	25366.17
818.651	25206.4
818.979	25105.61
819.307	25134.31
819.636	25121.66
819.964	25034.2
820.292	25029.68
820.62	24990.81
820.948	25048.89
821.276	25190.81
821.604	24963.02
821.932	25137.02
822.259	24998.04
822.587	25044.6
822.915	25028.32
823.243	24977.48
823.57	24797.14
823.898	25113.52
824.225	24882.11
824.553	24935.9
824.88	24909.23
825.207	25047.76
825.535	24915.79
825.862	24967.31
826.189	24974.99
826.516	25159.85
826.843	25128.44
827.17	25061.77
827.497	25023.58
827.824	25108.1
828.151	25123.92
828.478	25028.55
828.805	25213.4
829.131	25106.06
829.458	25126.18
829.785	24855
830.111	25009.12
830.438	25087.76
830.764	25026.74
831.09	24992.39
831.417	24991.72
831.743	25116.46
832.069	24997.14
832.395	24899.29
832.722	25040.75
833.048	24880.76
833.374	25012.51
833.7	24859.29
834.026	24932.73
834.351	24933.41
834.677	24912.4
835.003	24847.54
835.329	24838.73
835.654	24710.59
835.98	24804.15
836.306	24811.16
836.631	24671.27
836.956	24814.55
837.282	24897.93
837.607	24746.75
837.932	24694.77
838.258	24617.49
838.583	24559.86
838.908	24600.09
839.233	24524.16
839.558	24534.55
839.883	24392.18
840.208	24299.98
840.533	24386.31
840.858	24382.24
841.182	24353.54
841.507	24325.52
841.832	24198.29
842.156	24191.51
842.481	24217.72
842.805	24059.08
843.13	23977.51
843.454	24049.37
843.778	23982.93
844.103	23902.93
844.427	23805.31
844.751	23744.29
845.075	23768.7
845.399	23664.52
845.723	23580
846.047	23577.74
846.371	23396.5
846.695	23383.17
847.019	23285.09
847.343	23187.92
847.666	23006.23
847.99	23005.33
848.313	22888.04
848.637	22964.88
848.96	22716.07
849.284	22723.07
849.607	22574.83
849.931	22525.79
850.254	22521.5
850.577	22234.05
850.9	22142.3
851.223	22126.71
851.546	21959.48
851.869	21941.4
852.192	22122.64
852.515	21739.15
852.838	21688.07
853.161	21671.35
853.483	21628.19
853.806	21528.53
854.129	21440.4
854.451	21403.79
854.774	21291.93
855.096	21244.92
855.419	21131.7
855.741	21136.68
856.063	21089.45
856.385	20833.18
856.708	20968.77
857.03	20820.98
857.352	20778.49
857.674	20829.11
857.996	20600.19
858.318	20574.43
858.64	20596.58
858.961	20470.93
859.283	20371.72
859.605	20310.93
859.926	20385.96
860.248	20211.95
860.57	20161.33
860.891	20200.43
861.212	20039.53
861.534	20075.91
861.855	19973.77
862.176	20036.14
862.498	19928.35
862.819	20025.29
863.14	19865.52
863.461	19845.86
863.782	19817.84
864.103	19772.87
864.424	19672.99
864.745	19687.9
865.065	19646.09
865.386	19466.21
865.707	19562.93
866.027	19564.97
866.348	19572.88
866.668	19510.73
866.989	19483.16
867.309	19270.51
867.63	19355.25
867.95	19302.15
868.27	19239.32
868.59	19223.28
868.91	19143.51
869.23	19218.53
869.55	19093.34
869.87	19158.2
870.19	18950.52
870.51	19027.8
870.83	19007.69
871.15	18912.78
871.469	18892.67
871.789	18922.95
872.109	18913.01
872.428	18833.91
872.748	18794.14
873.067	18711.43
873.386	18821.93
873.706	18785.55
874.025	18652.45
874.344	18636.63
874.663	18656.06
874.982	18687.02
875.301	18590.53
875.62	18486.12
875.939	18428.27
876.258	18500.59
876.577	18361.16
876.896	18477.31
877.214	18398.44
877.533	18379.46
877.852	18298.11
878.17	18391.44
878.489	18285
878.807	18195.28
879.125	18179.92
879.444	18181.05
879.762	18054.5
880.08	18144.44
880.398	17999.13
880.716	18099.69
881.034	17926.36
881.352	18020.15
881.67	17887.5
881.988	17956.65
882.306	17911.68
882.624	17925.69
882.941	17786.26
883.259	17737.22
883.577	17689.99
883.894	17761.4
884.212	17694.73
884.529	17646.6
884.846	17461.74
885.164	17442.76
885.481	17307.85
885.798	17451.35
886.115	17372.93
886.432	17364.8
886.75	17266.5
887.067	17287.29
887.383	17176.55
887.7	17183.11
888.017	17027.41
888.334	17058.14
888.651	17111.47
888.967	16952.61
889.284	16861.76
889.6	16847.98
889.917	16807.98
890.233	16761.42
890.55	16708.32
890.866	16668.32
891.182	16666.06
891.498	16682.78
891.815	16519.17
892.131	16492.28
892.447	16459.28
892.763	16426.07
893.079	16384.26
893.395	16278.72
893.71	16384.94
894.026	16262.23
894.342	16283.47
894.657	16092.29
894.973	15987.66
895.289	16022.01
895.604	16057.49
895.92	15934.55
896.235	15846.42
896.55	15864.72
896.865	15827.21
897.181	15736.37
897.496	15748.57
897.811	15635.13
898.126	15542.92
898.441	15619.53
898.756	15516.71
899.071	15435.13
899.386	15469.03
899.7	15322.37
900.015	15241.92
900.33	15085.76
900.644	15050.28
900.959	15180
901.273	15002.6
901.588	14994.46
901.902	14958.31
902.216	14909.95
902.531	14810.74
902.845	14782.94
903.159	14595.83
903.473	14675.38
903.787	14590.86
904.101	14495.95
904.415	14486.23
904.729	14481.26
905.042	14372.33
905.356	14363.97
905.67	14263.41
905.984	14331.43
906.297	14209.17
906.611	14094.38
906.924	14085.56
907.237	14065
907.551	13984.1
907.864	13985.45
908.177	13881.5
908.491	13794.95
908.804	13700.49
909.117	13684.89
909.43	13601.51
909.743	13607.61
910.056	13604.9
910.368	13486.71
910.681	13425.47
910.994	13417.33
911.307	13273.83
911.619	13215.53
911.932	13201.97
912.244	13077.68
912.557	13074.29
912.869	13033.39
913.181	12957.91
913.494	13023.67
913.806	12826.16
914.118	12772.38
914.43	12765.14
914.742	12707.97
915.054	12639.95
915.366	12575.09
915.678	12488.32
915.99	12478.15
916.302	12437.47
916.613	12346.4
916.925	12339.39
917.236	12353.86
917.548	12221.88
917.859	12257.14
918.171	12153.64
918.482	12056.24
918.794	12010.59
919.105	12126.07
919.416	11881.78
919.727	11917.71
920.038	11880.2
920.349	11721.1
920.66	11745.74
920.971	11751.61
921.282	11617.6
921.593	11520.21
921.903	11472.52
922.214	11483.6
922.525	11453.99
922.835	11399.3
923.146	11352.53
923.456	11285.86
923.767	11238.41
924.077	11249.25
924.387	11193.89
924.697	11049.48
925.008	11080.67
925.318	10959.32
925.628	10943.95
925.938	10997.06
926.248	10816.27
926.558	10727.46
926.867	10810.39
927.177	10779.43
927.487	10675.48
927.796	10646.1
928.106	10595.71
928.416	10556.39
928.725	10502.83
929.034	10474.81
929.344	10468.03
929.653	10423.06
929.962	10297.86
930.271	10273.91
930.581	10265.32
930.89	10237.53
931.199	10112.78
931.508	10038.44
931.817	10061.49
932.125	10126.12
932.434	9936.52
932.743	9910.53
933.051	9892.23
933.36	9867.14
933.669	9774.49
933.977	9767.03
934.286	9755.96
934.594	9618.33
934.902	9665.34
935.21	9536.53
935.519	9538.56
935.827	9494.95
936.135	9480.49
936.443	9383.76
936.751	9411.79
937.059	9300.15
937.367	9261.96
937.674	9321.39
937.982	9226.48
938.29	9208.18
938.597	9227.38
938.905	9036.66
939.213	9038.91
939.52	9063.55
939.827	9079.59
940.135	8976.09
940.442	8936.54
940.749	8894.96
941.056	8831.24
941.363	8804.8
941.67	8721.41
941.977	8693.16
942.284	8681.86
942.591	8617.46
942.898	8637.8
943.205	8631.24
943.511	8525.71
943.818	8467.4
944.125	8459.04
944.431	8444.35
944.738	8399.61
945.044	8395.54
945.35	8372.04
945.657	8315.54
945.963	8216.79
946.269	8234.42
946.575	8160.07
946.881	8105.83
947.187	8231.48
947.493	8006.17
947.799	8026.96
948.105	7981.32
948.41	7908.32
948.716	7922.11
949.022	7956.68
949.327	7840.98
949.633	7739.97
949.938	7737.48
950.244	7771.83
950.549	7676.46
950.854	7646.18
951.16	7602.79
951.465	7587.43
951.77	7542.91
952.075	7569.35
952.38	7533.19
952.685	7504.04
952.99	7418.17
953.294	7436.47
953.599	7386.53
953.904	7424.49
954.209	7278.96
954.513	7341.33
954.818	7283.93
955.122	7228.34
955.426	7202.8
955.731	7100.43
956.035	7134.56
956.339	7146.31
956.643	7017.95
956.948	6988.12
957.252	6972.53
957.556	6964.17
957.86	6992.19
958.163	6888.69
958.467	6871.74
958.771	6866.54
959.075	6808.69
959.378	6775.25
959.682	6780.9
959.985	6688.92
960.289	6624.29
960.592	6645.53
960.896	6662.48
961.199	6623.39
961.502	6601.24
961.805	6524.86
962.108	6448.25
962.411	6476.04
962.714	6414.8
963.017	6419.55
963.32	6395.82
963.623	6345.43
963.926	6314.92
964.228	6298.87
964.531	6265.88
964.833	6259.33
965.136	6217.75
965.438	6182.27
965.741	6114.47
966.043	6086.22
966.345	6093
966.648	6095.94
966.95	6020.92
967.252	5983.18
967.554	6021.14
967.856	5959
968.158	5912.9
968.46	5930.3
968.761	5895.04
969.063	5846.46
969.365	5832.22
969.666	5794.25
969.968	5780.24
970.269	5721.04
970.571	5733.24
970.872	5642.39
971.174	5658.44
971.475	5676.52
971.776	5629.29
972.077	5591.1
972.378	5587.71
972.679	5542.28
972.98	5498.22
973.281	5513.36
973.582	5444.89
973.883	5458.67
974.183	5453.02
974.484	5385.9
974.785	5377.09
975.085	5342.97
975.386	5346.36
975.686	5290.99
975.986	5254.83
976.287	5227.72
976.587	5189.07
976.887	5200.15
977.187	5228.62
977.487	5178.45
977.787	5108.17
978.087	5077.44
978.387	5069.53
978.687	5078.12
978.987	5034.05
979.286	5003.77
979.586	5020.49
979.885	4964.45
980.185	4919.25
980.484	4916.09
980.784	4920.15
981.083	4837.9
981.382	4839.25
981.682	4854.62
981.981	4784.11
982.28	4795.41
982.579	4723.32
982.878	4756.09
983.177	4731.68
983.475	4689.42
983.774	4675.87
984.073	4580.73
984.372	4613.27
984.67	4653.95
984.969	4594.96
985.267	4576.66
985.566	4551.58
985.864	4500.28
986.162	4534.17
986.461	4478.81
986.759	4458.02
987.057	4377.12
987.355	4384.35
987.653	4378.02
987.951	4367.17
988.249	4340.51
988.547	4318.81
988.844	4300.28
989.142	4239.49
989.44	4264.58
989.737	4290.34
990.035	4221.64
990.332	4198.82
990.63	4173.73
990.927	4165.82
991.224	4150
991.521	4132.83
991.819	4098.71
992.116	4070.01
992.413	4067.75
992.71	4058.03
993.006	4058.48
993.303	4016.22
993.6	3984.58
993.897	3988.88
994.193	3935.55
994.49	3891.25
994.787	3877.24
995.083	3868.2
995.379	3816.23
995.676	3826.85
995.972	3832.95
996.268	3816.23
996.565	3819.17
996.861	3781.65
997.157	3738.04
997.453	3731.94
997.749	3715.44
998.044	3682.67
998.34	3684.03
998.636	3667.08
998.932	3629.57
999.227	3578.95
999.523	3586.4
999.818	3569.45
1000.114	3556.12
1000.409	3489
1000.704	3524.94
1001	3474.77
1001.295	3424.83
1001.59	3445.16
1001.885	3453.3
1002.18	3416.46
1002.475	3397.26
1002.77	3338.05
1003.065	3345.28
1003.359	3311.16
1003.654	3358.39
1003.949	3296.92
1004.243	3289.01
1004.538	3258.28
1004.832	3283.81
1005.127	3237.71
1005.421	3193.64
1005.715	3199.97
1006.009	3146.64
1006.304	3125.62
1006.598	3118.17
1006.892	3123.14
1007.186	3074.33
1007.48	3061.44
1007.773	3031.62
1008.067	3028.23
1008.361	3000.66
1008.655	3007.89
1008.948	2970.6
1009.242	2963.82
1009.535	2946.42
1009.829	2923.82
1010.122	2900.09
1010.415	2869.81
1010.708	2894.22
1011.001	2865.52
1011.295	2836.82
1011.588	2819.42
1011.881	2776.71
1012.173	2806.31
1012.466	2764.28
1012.759	2745.75
1013.052	2744.17
1013.344	2742.36
1013.637	2686.99
1013.93	2683.38
1014.222	2658.52
1014.514	2648.8
1014.807	2599.76
1015.099	2595.69
1015.391	2585.75
1015.683	2576.26
1015.976	2593.66
1016.268	2548.69
1016.56	2506.88
1016.851	2520.67
1017.143	2470.5
1017.435	2475.47
1017.727	2499.65
1018.018	2453.78
1018.31	2418.52
1018.602	2448.35
1018.893	2420.11
1019.185	2369.71
1019.476	2390.5
1019.767	2310.5
1020.058	2331.07
1020.35	2301.92
1020.641	2310.05
1020.932	2263.5
1021.223	2261.01
1021.514	2229.83
1021.804	2228.25
1022.095	2238.87
1022.386	2177.63
1022.677	2189.15
1022.967	2182.6
1023.258	2146.44
1023.548	2113.22
1023.839	2110.28
1024.129	2125.65
1024.419	2097.85
1024.709	2065.31
1025	2048.82
1025.29	2022.6
1025.58	2056.27
1025.87	2024.64
1026.16	2014.92
1026.449	2023.05
1026.739	2002.49
1027.029	1991.19
1027.319	1946.22
1027.608	1939.44
1027.898	1902.83
1028.187	1927.92
1028.477	1909.84
1028.766	1896.96
1029.055	1880.69
1029.344	1869.84
1029.634	1828.03
1029.923	1835.71
1030.212	1805.43
1030.501	1816.73
1030.79	1783.74
1031.078	1766.79
1031.367	1754.81
1031.656	1765.89
1031.945	1759.33
1032.233	1714.36
1032.522	1713.23
1032.81	1699.9
1033.099	1671.65
1033.387	1698.09
1033.675	1658.54
1033.963	1644.76
1034.251	1671.42
1034.54	1638.43
1034.828	1620.35
1035.116	1569.51
1035.403	1609.96
1035.691	1560.69
1035.979	1559.34
1036.267	1541.26
1036.554	1539
1036.842	1550.98
1037.129	1542.39
1037.417	1537.64
1037.704	1489.96
1037.992	1471.66
1038.279	1491.09
1038.566	1449.96
1038.853	1449.96
1039.14	1449.96
