Data from 277_FLMS001491_008.txt Node
Date: Thu Apr 19 16:45:14 BST 2018
User: hsy
Spectrometer: FLMS00149
Trigger mode: 0
Integration Time (sec): 1.000000E-2
Scans to average: 10
Electric dark correction enabled: true
Nonlinearity correction enabled: false
Boxcar width: 0
XAxis mode: Wavelengths
Number of Pixels in Spectrum: 2048
>>>>>Begin Spectral Data<<<<<
341.393	-24.84
341.776	-24.84
342.16	-24.84
342.543	-49.25
342.927	-59.87
343.31	-74.79
343.693	-79.98
344.077	-70.72
344.46	-59.87
344.843	-37.5
345.226	-45.63
345.61	-24.62
345.993	-17.39
346.376	-2.02
346.759	13.35
347.142	11.99
347.525	36.4
347.908	54.93
348.291	79.56
348.674	111.42
349.057	104.87
349.44	116.62
349.823	133.57
350.206	170.63
350.588	231.19
350.971	246.79
351.354	253.79
351.737	285.43
352.119	294.24
352.502	298.76
352.884	304.19
353.267	318.2
353.65	308.03
354.032	339.89
354.414	341.93
354.797	350.97
355.179	350.29
355.562	350.74
355.944	347.12
356.326	375.15
356.709	375.37
357.091	373.79
357.473	378.99
357.855	372.43
358.238	370.63
358.62	367.24
359.002	386.67
359.384	374.02
359.766	364.75
360.148	372.43
360.53	379.67
360.912	383.05
361.294	378.99
361.676	371.98
362.057	382.6
362.439	362.94
362.821	381.7
363.203	386.44
363.584	358.42
363.966	372.66
364.348	369.95
364.729	358.87
365.111	369.04
365.493	371.98
365.874	376.73
366.256	364.98
366.637	378.31
367.019	368.37
367.4	371.3
367.781	374.02
368.163	365.88
368.544	364.52
368.925	332.89
369.306	369.04
369.688	379.89
370.069	380.57
370.45	350.74
370.831	372.21
371.212	359.55
371.593	359.55
371.974	373.79
372.355	383.28
372.736	387.12
373.117	371.98
373.498	383.28
373.879	371.76
374.26	388.03
374.641	397.74
375.021	369.72
375.402	377.18
375.783	383.73
376.163	411.98
376.544	389.38
376.925	416.27
377.305	391.87
377.686	381.02
378.066	374.69
378.447	387.12
378.827	412.43
379.208	416.27
379.588	389.83
379.968	398.42
380.349	419.21
380.729	408.36
381.109	410.4
381.489	408.14
381.87	435.26
382.25	417.18
382.63	416.5
383.01	447.01
383.39	439.55
383.77	434.35
384.15	442.94
384.53	440
384.91	441.58
385.29	465.09
385.67	457.63
386.049	473
386.429	448.36
386.809	481.13
387.189	470.28
387.568	462.83
387.948	474.58
388.328	483.17
388.707	468.02
389.087	480.45
389.466	487.91
389.846	484.3
390.225	508.7
390.605	506.22
390.984	500.11
391.363	515.25
391.743	510.51
392.122	517.29
392.501	511.19
392.881	527.91
393.26	520.23
393.639	535.14
394.018	550.51
394.397	521.81
394.776	561.36
395.155	540.56
395.534	548.7
395.913	564.97
396.292	567.46
396.671	562.03
397.05	580.11
397.429	572.2
397.808	575.59
398.186	599.77
398.565	596.83
398.944	590.51
399.323	616.5
399.701	601.81
400.08	600
400.458	611.52
400.837	625.53
401.215	653.78
401.594	646.55
401.972	661.69
402.351	670.73
402.729	687.23
403.107	688.36
403.486	651.75
403.864	667.79
404.242	693.78
404.62	698.07
404.999	710.73
405.377	727
405.755	765.87
406.133	735.36
406.511	762.25
406.889	778.07
407.267	783.72
407.645	788.24
408.023	817.17
408.401	804.51
408.779	851.52
409.156	874.34
409.534	861.91
409.912	879.31
410.29	919.31
410.667	927.67
411.045	948.69
411.422	960.89
411.8	967.22
412.178	1003.38
412.555	1009.71
412.933	1042.92
413.31	1059.42
413.687	1064.62
414.065	1080.66
414.442	1127.44
414.819	1110.95
415.197	1127.22
415.574	1177.38
415.951	1192.98
416.328	1231.39
416.705	1240.21
417.082	1241.56
417.46	1236.37
417.837	1269.59
418.214	1287.89
418.591	1305.52
418.967	1293.77
419.344	1324.5
419.721	1353.2
420.098	1383.71
420.475	1384.84
420.852	1411.05
421.228	1398.62
421.605	1416.93
421.982	1474.55
422.358	1473.2
422.735	1505.74
423.111	1509.35
423.488	1594.1
423.864	1544.61
424.241	1559.52
424.617	1591.16
424.994	1601.78
425.37	1634.55
425.746	1637.94
426.123	1689.91
426.499	1699.18
426.875	1719.74
427.251	1729.91
427.627	1777.14
428.003	1841.1
428.379	1810.59
428.756	1855.56
429.132	1844.03
429.507	1882.9
429.883	1923.13
430.259	1948.66
430.635	1996.35
431.011	1989.79
431.387	2050.58
431.763	2071.6
432.138	2089.9
432.514	2131.03
432.89	2113.63
433.265	2210.35
433.641	2210.58
434.016	2220.29
434.392	2307.3
434.767	2344.36
435.143	2355.66
435.518	2378.03
435.894	2373.51
436.269	2452.61
436.644	2504.13
437.02	2494.19
437.395	2517.24
437.77	2586.61
438.145	2619.38
438.52	2660.96
438.895	2703.67
439.271	2707.51
439.646	2741.41
440.021	2775.76
440.395	2798.36
440.77	2798.58
441.145	2857.34
441.52	2888.75
441.895	2884.01
442.27	2912.93
442.645	2889.66
443.019	2939.15
443.394	2913.16
443.769	2958.35
444.143	3003.1
444.518	3037
444.892	3060.72
445.267	3047.62
445.641	3091.46
446.016	3133.27
446.39	3128.52
446.764	3185.02
447.139	3199.93
447.513	3196.31
447.887	3215.75
448.262	3235.86
448.636	3241.06
449.01	3308.18
449.384	3337.55
449.758	3351.34
450.132	3419.59
450.506	3449.41
450.88	3482.41
451.254	3429.53
451.628	3501.17
452.002	3601.28
452.376	3601.95
452.75	3655.96
453.123	3702.74
453.497	3722.18
453.871	3741.16
454.244	3840.59
454.618	3837.65
454.992	3966.01
455.365	3921.94
455.739	4001.72
456.112	4095.27
456.486	4071.55
456.859	4142.28
457.232	4239.68
457.606	4274.7
457.979	4358.32
458.352	4426.79
458.725	4417.3
459.099	4491.2
459.472	4511.53
459.845	4665.43
460.218	4675.6
460.591	4705.65
460.964	4777.97
461.337	4861.13
461.71	4933.22
462.083	4970.05
462.456	5011.86
462.829	5057.73
463.201	5193.32
463.574	5118.98
463.947	5253.21
464.32	5356.71
464.692	5404.17
465.065	5433.09
465.438	5489.36
465.81	5580.21
466.183	5570.04
466.555	5743.14
466.928	5791.27
467.3	5765.29
467.672	5817.49
468.045	6079.4
468.417	6016.13
468.789	6057.48
469.161	6142.23
469.534	6245.5
469.906	6330.02
470.278	6370.92
470.65	6503.57
471.022	6587.19
471.394	6715.77
471.766	6729.78
472.138	6846.16
472.51	6887.29
472.882	7065.14
473.253	7131.58
473.625	7190.56
473.997	7406.15
474.369	7468.29
474.74	7492.92
475.112	7659.47
475.484	7773.37
475.855	7943.99
476.227	7979.24
476.598	8176.07
476.97	8305.33
477.341	8426.46
477.713	8493.12
478.084	8627.13
478.455	8825.54
478.827	8862.15
479.198	9185.31
479.569	9129.27
479.94	9387.11
480.311	9456.94
480.682	9756.37
481.053	9947.32
481.424	10060.54
481.795	10206.75
482.166	10320.42
482.537	10429.12
482.908	10685.38
483.279	10832.95
483.65	11024.81
484.021	11236.78
484.391	11291.24
484.762	11403.56
485.133	11572.37
485.503	11697.11
485.874	12056.42
486.244	12081.05
486.615	12359.92
486.985	12443.75
487.356	12649.17
487.726	12749.51
488.097	13007.36
488.467	13093
488.837	13446.21
489.207	13458.42
489.578	13643.27
489.948	13869.71
490.318	14065.86
490.688	14080.77
491.058	14288.9
491.428	14505.85
491.798	14615.68
492.168	14819.06
492.538	14930.24
492.908	15089.33
493.278	15336.33
493.648	15289.56
494.017	15616.1
494.387	15659.04
494.757	15842.99
495.126	15867.62
495.496	16034.39
495.866	16199.36
496.235	16324.56
496.605	16408.17
496.974	16471.22
497.344	16698.33
497.713	16795.28
498.082	16801.38
498.452	16956.86
498.821	17048.15
499.19	17006.35
499.559	17299.22
499.928	17436.62
500.298	17404.3
500.667	17599.1
501.036	17593.22
501.405	17787.8
501.774	17802.94
502.143	17885.42
502.512	18031.63
502.88	18155.69
503.249	18197.28
503.618	18352.3
503.987	18233.88
504.356	18501.22
504.724	18500.32
505.093	18571.05
505.462	18610.15
505.83	18852.63
506.199	18915.45
506.567	19276.8
506.936	19055.56
507.304	19321.31
507.672	19447.86
508.041	19410.8
508.409	19568.99
508.777	19660.74
509.145	19902.54
509.514	19814.86
509.882	20071.35
510.25	20032.26
510.618	20140.73
510.986	20305.69
511.354	20363.77
511.722	20581.85
512.09	20732.12
512.458	20773.03
512.826	20905.45
513.193	20940.48
513.561	21051.21
513.929	21136.41
514.297	21384.31
514.664	21433.12
515.032	21638.77
515.4	21750.85
515.767	21792.66
516.135	21899.1
516.502	21710.63
516.869	22169.37
517.237	22312.2
517.604	22229.03
517.972	22555.58
518.339	22704.05
518.706	22681.45
519.073	22857.49
519.44	22915.8
519.808	23095
520.175	23126.41
520.542	23450.02
520.909	23568.66
521.276	23679.39
521.643	23890.23
522.009	23990.8
522.376	24105.14
522.743	24233.05
523.11	24587.16
523.477	24729.31
523.843	24781.51
524.21	25048.4
524.577	25047.04
524.943	25285
525.31	25442.96
525.676	25694.25
526.043	25745.1
526.409	25875.49
526.776	26261.92
527.142	26298.08
527.508	26411.3
527.874	26528.58
528.241	26779.42
528.607	26871.17
528.973	27079.53
529.339	27056.7
529.705	27297.38
530.071	27531.95
530.437	27599.29
530.803	27661.43
531.169	27841.32
531.535	27886.74
531.901	27899.62
532.267	28048.32
532.632	28305.26
532.998	28294.86
533.364	28425.93
533.73	28491.47
534.095	28848.52
534.461	28630.67
534.826	28832.25
535.192	28897.56
535.557	29010.1
535.923	29108.85
536.288	29130.55
536.653	29261.84
537.019	29142.75
537.384	29311.56
537.749	29290.09
538.114	29442.86
538.479	29285.35
538.845	29422.74
539.21	29433.59
539.575	29355.17
539.94	29521.95
540.305	29547.26
540.67	29547.71
541.034	29740.93
541.399	29779.34
541.764	29735.28
542.129	29808.5
542.494	29888.49
542.858	29990.64
543.223	29892.79
543.587	29895.95
543.952	29855.05
544.316	30018.89
544.681	29909.74
545.045	30213.91
545.41	30170.29
545.774	29914.93
546.138	29987.02
546.503	30081.94
546.867	30079.45
547.231	30343.4
547.595	30259.33
547.959	30149.96
548.324	30116.06
548.688	30180.01
549.052	30221.37
549.416	30230.41
549.779	30290.74
550.143	30167.58
550.507	30340.23
550.871	30327.8
551.235	30288.71
551.599	30539.55
551.962	30433.56
552.326	30483.28
552.689	30492.55
553.053	30270.4
553.417	30358.99
553.78	30684.63
554.143	30589.49
554.507	30585.65
554.87	30653.67
555.234	30824.29
555.597	30552.66
555.96	30790.16
556.323	30781.13
556.686	30712.2
557.05	30938.86
557.413	30932.99
557.776	30876.94
558.139	31077.16
558.502	31104.73
558.865	31013.44
559.228	31221.79
559.59	31168.01
559.953	31156.71
560.316	31495.46
560.679	31418.4
561.041	31528.22
561.404	31616.81
561.767	31824.26
562.129	31617.26
562.492	31817.71
562.854	31792.4
563.217	31785.17
563.579	31846.41
563.941	32013.64
564.304	32155.78
564.666	32357.13
565.028	32229.68
565.39	32385.15
565.753	32536.33
566.115	32483.23
566.477	32602.09
566.839	32609.78
567.201	32948.75
567.563	32861.52
567.925	32999.82
568.287	33046.15
568.648	33064
569.01	33119.14
569.372	33467.83
569.734	33444.11
570.095	33633.93
570.457	33731.33
570.819	33591.67
571.18	33680.26
571.542	33908.95
571.903	33900.37
572.265	34151.88
572.626	34226.91
572.987	34203.86
573.349	34502.84
573.71	34459.9
574.071	34665.32
574.432	34829.38
574.794	35053.78
575.155	35079.77
575.516	34991.18
575.877	35056.72
576.238	35100.79
576.599	35292.65
576.96	35332.42
577.32	35410.61
577.681	35455.81
578.042	35520.89
578.403	35622.58
578.763	35682.92
579.124	35655.35
579.485	35969.24
579.845	36038.84
580.206	35959.52
580.566	36011.04
580.927	35938.73
581.287	36273.64
581.648	36011.95
582.008	36390.47
582.368	36232.51
582.728	36284.26
583.089	36463.24
583.449	36458.72
583.809	36389.79
584.169	36608.09
584.529	36574.87
584.889	36816.67
585.249	36594.53
585.609	36531.48
585.969	36926.95
586.329	36849.67
586.688	36881.08
587.048	36978.25
587.408	36956.33
587.768	36982.32
588.127	37102.32
588.487	37189.32
588.846	37227.28
589.206	36959.04
589.565	37089.66
589.925	37403.55
590.284	37272.25
590.643	37370.56
591.003	37453.04
591.362	37537.78
591.721	37551.34
592.08	37623.66
592.44	37785.69
592.799	37582.08
593.158	37791.56
593.517	37594.96
593.876	37843.09
594.235	37812.13
594.593	37954.5
594.952	38038.56
595.311	37948.39
595.67	38044.21
596.029	38246.47
596.387	38318.78
596.746	38412.11
597.104	38183.42
597.463	38267.71
597.822	38544.09
598.18	38370.53
598.538	38572.33
598.897	38676.74
599.255	38523.07
599.613	39033.11
599.972	38791.99
600.33	38876.05
600.688	38850.52
601.046	38843.96
601.404	39173.67
601.762	39146.78
602.12	39259.77
602.478	39268.36
602.836	39357.4
603.194	39146.33
603.552	39246.21
603.91	39229.72
604.268	39565.3
604.625	39214.8
604.983	39688.69
605.341	39454.8
605.698	39749.03
606.056	40080.77
606.413	39722.36
606.771	40015.46
607.128	39997.38
607.485	39840.1
607.843	39945.18
608.2	40163.93
608.557	40309.01
608.914	40254.77
609.272	40396.47
609.629	40624.26
609.986	40725.27
610.343	40673.07
610.7	40957.13
611.057	40806.17
611.414	40754.2
611.771	41116.45
612.127	41142.89
612.484	41158.48
612.841	41274.64
613.198	41140.4
613.554	41174.52
613.911	41456.78
614.267	41416.78
614.624	41488.87
614.98	41647.51
615.337	41775.41
615.693	41709.88
616.05	41777.22
616.406	42035.29
616.762	41833.94
617.118	41935.86
617.475	41777.67
617.831	42133.14
618.187	42113.71
618.543	42139.25
618.899	42542.17
619.255	42497.65
619.611	42386.47
619.967	42493.36
620.323	42813.13
620.678	42568.84
621.034	42560.93
621.39	42562.74
621.746	42445.9
622.101	43019.22
622.457	42654.03
622.812	42875.27
623.168	43018.77
623.523	42830.07
623.879	43063.29
624.234	42706.24
624.589	42911.65
624.945	42915.95
625.3	42977.87
625.655	43032.55
626.01	43001.14
626.365	43155.49
626.72	42958.88
627.075	43073.01
627.43	43067.36
627.785	43023.97
628.14	43107.58
628.495	43060.35
628.85	43131.76
629.205	42950.75
629.559	43249.05
629.914	43117.07
630.269	43038.43
630.623	42812.9
630.978	42869.4
631.332	43101.48
631.687	43082.27
632.041	43058.54
632.396	42922.05
632.75	42810.64
633.104	42985.55
633.459	42757.53
633.813	42790.98
634.167	42612.23
634.521	42798.89
634.875	42759.12
635.229	42706.69
635.583	42378.11
635.937	42453.81
636.291	42491.78
636.645	42508.95
636.999	42197.77
637.352	42352.12
637.706	42258.56
638.06	42382.63
638.413	42299.92
638.767	42136.76
639.121	42207.04
639.474	42162.07
639.828	42019.93
640.181	41998.91
640.534	42121.84
640.888	41849.54
641.241	41665.36
641.594	41858.57
641.947	42050.89
642.301	41821.97
642.654	41762.31
643.007	41779.71
643.36	41796.43
643.713	41712.14
644.066	41857.22
644.419	41532.71
644.771	41166.16
645.124	40833.29
645.477	40887.98
645.83	40742.45
646.182	40637.82
646.535	40499.06
646.888	40750.81
647.24	40591.04
647.593	40833.52
647.945	40605.73
648.298	40592.39
648.65	40462.68
649.002	40460.87
649.355	40354.89
649.707	40208.9
650.059	40404.15
650.411	40858.6
650.763	41013.17
651.115	41628.07
651.467	41440.73
651.819	41578.81
652.171	41299.49
652.523	41201.64
652.875	41299.95
653.227	41314.41
653.578	41542.65
653.93	41346.95
654.282	41232.6
654.633	41257.91
654.985	41417.91
655.337	41496.32
655.688	41364.35
656.039	41522.09
656.391	41181.53
656.742	41319.83
657.094	41351.47
657.445	41288.65
657.796	41382.65
658.147	41289.55
658.498	41409.77
658.849	41478.25
659.2	41373.39
659.551	41404.35
659.902	41692.48
660.253	41392.82
660.604	41520.73
660.955	41438.02
661.306	41683.21
661.656	41439.38
662.007	41500.39
662.358	41595.3
662.708	41675.75
663.059	41558.02
663.409	41548.07
663.76	41621.74
664.11	41671.46
664.461	41718.01
664.811	41727.05
665.161	41727.73
665.511	41659.03
665.862	41669.43
666.212	41769.76
666.562	41823.77
666.912	41777.67
667.262	41757.11
667.612	41806.82
667.962	41861.06
668.312	41604.57
668.662	42016.08
669.011	41768.18
669.361	41770.67
669.711	41852.92
670.06	41799.37
670.41	41733.61
670.76	41684.57
671.109	41888.86
671.459	41744.23
671.808	41623.33
672.157	41607.51
672.507	41481.41
672.856	41642.08
673.205	41659.26
673.554	41788.07
673.904	41655.87
674.253	41841.85
674.602	41567.51
674.951	40970.69
675.3	40890.01
675.649	41552.14
675.998	41509.66
676.346	41486.38
676.695	41522.76
677.044	41261.53
677.393	41318.25
677.741	41446.61
678.09	41313.73
678.438	41250.23
678.787	41229.66
679.135	41202.77
679.484	40938.37
679.832	41111.93
680.181	40932.05
680.529	41003
680.877	40778.38
681.225	40861.99
681.573	41036
681.922	40808.43
682.27	40637.14
682.618	40690.02
682.966	40582.9
683.314	40541.32
683.661	40443.02
684.009	40363.47
684.357	40171.16
684.705	40093.88
685.053	40144.04
685.4	39972.52
685.748	39922.35
686.095	39864.05
686.443	39721
686.79	39543.61
687.138	39590.84
687.485	39468.58
687.832	39402.37
688.18	39344.06
688.527	39241.02
688.874	39107.23
689.221	39068.37
689.568	38886.45
689.915	38836.73
690.262	38900.46
690.609	38608.72
690.956	38433.35
691.303	38537.08
691.65	38203.53
691.997	38224.09
692.344	37991.11
692.69	38011.44
693.037	37940.03
693.383	37432.48
693.73	37568.52
694.077	37341.18
694.423	37349.99
694.769	37131.47
695.116	37045.14
695.462	36938.48
695.808	36847.86
696.155	36982.32
696.501	36578.94
696.847	36530.13
697.193	36313.86
697.539	36378.04
697.885	36123.58
698.231	35987.54
698.577	35851.05
698.923	35788.9
699.269	35476.37
699.614	35371.74
699.96	35106.44
700.306	35264.62
700.651	35017.17
700.997	34888.14
701.342	34848.36
701.688	34752.09
702.033	34525.43
702.379	34568.6
702.724	34418.54
703.069	34293.58
703.415	34026.46
703.76	33953.92
704.105	33944.66
704.45	33791.67
704.795	33751.9
705.14	33421.73
705.485	33415.41
705.83	33059.94
706.175	33298.57
706.52	33151.01
706.865	32996.21
707.209	32859.49
707.554	32851.58
707.899	32789.89
708.243	32476.22
708.588	32554.64
708.932	32285.72
709.277	32437.81
709.621	32239.84
709.966	32199.39
710.31	32067.87
710.654	32048.89
710.998	31935.67
711.342	32067.42
711.687	31827.88
712.031	31783.36
712.375	31625.85
712.719	31558.96
713.063	31499.07
713.407	31619.97
713.75	31488.23
714.094	31516.47
714.438	31300.89
714.782	31330.49
715.125	31228.35
715.469	31344.5
715.812	31065.86
716.156	31099.76
716.499	31161.45
716.843	31129.14
717.186	30886.66
717.53	31054.11
717.873	31161.45
718.216	31045.75
718.559	30935.02
718.902	30830.39
719.246	30815.48
719.589	30769.83
719.932	30797.4
720.275	30877.39
720.617	30738.19
720.96	30697.96
721.303	30736.61
721.646	30893.44
721.989	30669.04
722.331	30781.58
722.674	30616.38
723.016	30663.84
723.359	30577.97
723.701	30791.29
724.044	30688.47
724.386	30455.26
724.729	30610.96
725.071	30763.27
725.413	30611.41
725.755	30694.8
726.097	30604.63
726.439	30393.57
726.782	30480.34
727.124	30732.09
727.465	30476.5
727.807	30429.5
728.149	30538.42
728.491	30557.4
728.833	30569.83
729.175	30706.33
729.516	30561.02
729.858	30700
730.199	30613.9
730.541	30663.39
730.882	30602.37
731.224	30678.53
731.565	30604.63
731.906	30803.05
732.248	30678.98
732.589	30685.53
732.93	30731.18
733.271	30786.78
733.612	30786.1
733.953	30917.17
734.294	30841.92
734.635	30855.25
734.976	30925.08
735.317	31010.95
735.658	30925.98
735.999	30765.31
736.339	31135.69
736.68	31058.86
737.021	31098.86
737.361	30923.04
737.702	31231.96
738.042	31288.46
738.383	31224.05
738.723	31472.18
739.063	31313.99
739.404	31492.52
739.744	31516.02
740.084	31475.34
740.424	31566.64
740.764	31500.43
741.104	31783.81
741.444	31739.52
741.784	31692.74
742.124	31937.25
742.464	31987.65
742.804	32058.83
743.143	32101.99
743.483	32123.24
743.823	32167.76
744.162	32166.4
744.502	32394.19
744.841	32383.12
745.181	32664.47
745.52	32713.96
745.86	32897.23
746.199	32912.37
746.538	33040.28
746.877	33266.48
747.216	33231.23
747.556	33353.26
747.895	33520.94
748.234	33480.49
748.573	33646.81
748.911	33672.12
749.25	33965.45
749.589	33949.18
749.928	34218.32
750.267	34296.51
750.605	34321.15
750.944	34503.06
751.283	34528.37
751.621	34807.46
751.96	34745.09
752.298	34889.72
752.636	35036.38
752.975	35165.87
753.313	35322.7
753.651	35728.57
753.989	35625.29
754.327	35788
754.666	35602.47
755.004	35995.68
755.342	36084.04
755.679	36197.25
756.017	36176.92
756.355	36601.31
756.693	36553.63
757.031	36751.59
757.368	36649.22
757.706	36919.04
758.044	37009.21
758.381	37172.37
758.719	37100.51
759.056	37340.5
759.394	37311.8
759.731	37149.09
760.068	37400.84
760.405	37483.32
760.743	37587.73
761.08	37719.02
761.417	37524.68
761.754	37821.17
762.091	37883.31
762.428	37868.17
762.765	37844.44
763.102	38111.1
763.438	37961.05
763.775	37891.67
764.112	38020.03
764.449	38141.16
764.785	38129.18
765.122	37889.87
765.458	38006.25
765.795	37971.67
766.131	38105.9
766.467	38133.25
766.804	37929.19
767.14	37808.06
767.476	37800.38
767.812	37895.74
768.148	37944.55
768.485	37991.33
768.821	37792.24
769.157	37728.06
769.492	37780.04
769.828	37839.92
770.164	37380.5
770.5	37347.73
770.836	37535.98
771.171	37432.02
771.507	37456.43
771.842	37226.38
772.178	37234.97
772.513	37253.27
772.849	37090.79
773.184	37153.61
773.519	37041.75
773.855	36819.38
774.19	36766.05
774.525	36880.4
774.86	36713.85
775.195	36679.73
775.53	36394.99
775.865	36389.79
776.2	36201.1
776.535	36030.25
776.87	35959.97
777.205	35846.98
777.539	35853.53
777.874	35814.44
778.209	35562.24
778.543	35576.03
778.878	35432.53
779.212	35397.5
779.547	35251.97
779.881	35112.54
780.215	34939.66
780.55	35267.79
780.884	34851.08
781.218	34759.1
781.552	34841.81
781.886	34584.42
782.22	34483.85
782.554	34402.27
782.888	34171.77
783.222	34019.46
783.556	33890.65
783.889	33854.94
784.223	33662.41
784.557	33707.83
784.89	33759.58
785.224	33431.9
785.557	33379.02
785.891	33256.09
786.224	33287.73
786.558	33267.61
786.891	33052.7
787.224	32839.83
787.557	32777.91
787.891	32758.02
788.224	32499.72
788.557	32532.27
788.89	32419.27
789.223	32357.13
789.556	32047.99
789.888	32003.01
790.221	31999.17
790.554	31781.55
790.887	31840.53
791.219	31649.35
791.552	31527.77
791.884	31571.84
792.217	31542.69
792.549	31288.68
792.882	31252.3
793.214	31029.25
793.546	30956.49
793.879	30964.4
794.211	30576.39
794.543	30778.87
794.875	30657.97
795.207	30594.92
795.539	30443.73
795.871	30564.41
796.203	30259.78
796.535	30143.63
796.867	30071.31
797.198	30008.72
797.53	29952.22
797.862	29759.01
798.193	29826.35
798.525	29745.22
798.856	29695.28
799.188	29295.74
799.519	29247.15
799.85	29125.12
800.182	29191.56
800.513	29320.83
800.844	28834.51
801.175	29037.89
801.506	29019.82
801.837	28952.02
802.168	28740.5
802.499	28735.98
802.83	28544.57
803.161	28383.9
803.491	28391.81
803.822	28529.89
804.153	28270.46
804.483	28142.33
804.814	28048.77
805.145	28111.37
805.475	28052.38
805.805	27970.35
806.136	27866.4
806.466	27822.11
806.796	27741.66
807.126	27515.9
807.457	27458.95
807.787	27534.66
808.117	27460.54
808.447	27283.36
808.777	27409.46
809.107	27094.89
809.436	27096.25
809.766	27073.2
810.096	27230.26
810.426	26833.21
810.755	27004.28
811.085	26845.18
811.414	26957.95
811.744	26729.71
812.073	26772.87
812.403	26627.11
812.732	26468.47
813.061	26536.04
813.39	26348.7
813.719	26471.41
814.049	26541.24
814.378	26345.76
814.707	26185.77
815.036	26284.97
815.365	26041.59
815.693	25984.19
816.022	25919.33
816.351	25734.93
816.68	25722.28
817.008	25958.65
817.337	25529.96
817.665	25694.25
817.994	25600.47
818.322	25718.66
818.651	25457.42
818.979	25419.23
819.307	25372
819.636	25297.43
819.964	25245.9
820.292	25371.55
820.62	25161.39
820.948	25364.09
821.276	25421.94
821.604	25364.54
821.932	25374.26
822.259	25216.98
822.587	25291.1
822.915	25265.34
823.243	25315.96
823.57	25146.25
823.898	25388.05
824.225	25314.15
824.553	25190.99
824.88	25284.77
825.207	25412.45
825.535	25188.73
825.862	25277.99
826.189	25204.78
826.516	25426.24
826.843	25390.08
827.17	25421.94
827.497	25385.56
827.824	25334.49
828.151	25359.57
828.478	25376.75
828.805	25500.13
829.131	25375.39
829.458	25470.3
829.785	25078
830.111	25318.67
830.438	25380.14
830.764	25414.71
831.09	25415.62
831.417	25235.96
831.743	25532.9
832.069	25293.59
832.395	25233.02
832.722	25207.94
833.048	25222.4
833.374	25370.87
833.7	25201.84
834.026	25249.97
834.351	25198.67
834.677	25217.43
835.003	25137.43
835.329	25172.23
835.654	25165.68
835.98	24866.03
836.306	25086.36
836.631	24947.15
836.956	25124.78
837.282	25129.52
837.607	24979.47
837.932	24962.97
838.258	24886.82
838.583	24944.44
838.908	24842.07
839.233	24821.51
839.558	24714.17
839.883	24677.33
840.208	24614.73
840.533	24581.06
840.858	24574.51
841.182	24527.28
841.507	24614.06
841.832	24509.88
842.156	24537.67
842.481	24384.23
842.805	24325.02
843.13	24254.07
843.454	24272.37
843.778	24188.53
844.103	24227.85
844.427	24095.88
844.751	24099.95
845.075	23930.23
845.399	23914.87
845.723	23813.4
846.047	23812.04
846.371	23752.38
846.695	23564.82
847.019	23573.41
847.343	23393.98
847.666	23308.1
847.99	23143.13
848.313	23006.64
848.637	23229.23
848.96	22888
849.284	22979.75
849.607	22796.93
849.931	22836.93
850.254	22602.58
850.577	22456.15
850.9	22364.17
851.223	22304.06
851.546	22161.47
851.869	22101.13
852.192	22259.99
852.515	22035.37
852.838	21952.43
853.161	21775.94
853.483	21769.16
853.806	21610.75
854.129	21570.97
854.451	21630.63
854.774	21405.55
855.096	21419.11
855.419	21300.7
855.741	21267.03
856.063	21244.88
856.385	21064.55
856.708	21044.66
857.03	21058.44
857.352	20981.84
857.674	20956.3
857.996	20797.21
858.318	20684.44
858.64	20766.02
858.961	20572.58
859.283	20653.26
859.605	20474.96
859.926	20479.02
860.248	20406.26
860.57	20285.58
860.891	20354.73
861.212	20286.26
861.534	20250.56
861.855	20141.41
862.176	20221.86
862.498	20095.3
862.819	20135.3
863.14	19997.91
863.461	19994.29
863.782	19928.08
864.103	19946.83
864.424	19877.01
864.745	19871.81
865.065	19807.4
865.386	19714.75
865.707	19807.4
866.027	19805.14
866.348	19595.88
866.668	19682.21
866.989	19651.02
867.309	19528.31
867.63	19489.22
867.95	19543.46
868.27	19386.4
868.59	19457.81
868.91	19426.85
869.23	19394.98
869.55	19276.57
869.87	19322.22
870.19	19177.59
870.51	19238.6
870.83	19117.03
871.15	19037.25
871.469	19056.01
871.789	19182.11
872.109	19049.68
872.428	19056.24
872.748	19021.21
873.067	19091.49
873.386	19095.11
873.706	18915.67
874.025	18800.42
874.344	18803.81
874.663	18893.98
874.982	18814.43
875.301	18831.61
875.62	18734.21
875.939	18668.45
876.258	18709.13
876.577	18700.99
876.896	18613.08
877.214	18560.43
877.533	18596.59
877.852	18580.77
878.17	18566.53
878.489	18541.9
878.807	18516.59
879.125	18392.07
879.444	18340.1
879.762	18324.05
880.08	18405.18
880.398	18264.84
880.716	18214
881.034	18059.65
881.352	18154.34
881.67	18009.94
881.988	18142.81
882.306	18009.71
882.624	17978.52
882.941	18012.65
883.259	17872.99
883.577	18011.97
883.894	18002.03
884.212	17894.23
884.529	17807.46
884.846	17730.4
885.164	17576.73
885.481	17612.21
885.798	17627.12
886.115	17498.76
886.432	17589.38
886.75	17546.22
887.067	17557.52
887.383	17569.04
887.7	17484.07
888.017	17381.48
888.334	17345.32
888.651	17173.12
888.967	17171.09
889.284	17109.62
889.6	17173.12
889.917	16944.2
890.233	17037.53
890.55	16939.23
890.866	16874.37
891.182	16873.24
891.498	16777.65
891.815	16684.32
892.131	16698.56
892.447	16657.2
892.763	16612.23
893.079	16525.46
893.395	16490.2
893.71	16503.08
894.026	16314.16
894.342	16389.19
894.657	16307.61
894.973	16251.11
895.289	16315.07
895.604	16172.7
895.92	16106.03
896.235	16026.94
896.55	16029.42
896.865	15972.48
897.181	15932.93
897.496	15818.13
897.811	15850.22
898.126	15746.72
898.441	15651.35
898.756	15703.78
899.071	15562.32
899.386	15568.64
899.7	15457.91
900.015	15353.73
900.33	15243.68
900.644	15244.13
900.959	15410.91
901.273	15203
901.588	15114.42
901.902	15120.75
902.216	15065.83
902.531	14981.99
902.845	14816.8
903.159	14807.08
903.473	14800.98
903.787	14806.63
904.101	14679.4
904.415	14742
904.729	14548.11
905.042	14520.76
905.356	14450.71
905.67	14431.73
905.984	14415.45
906.297	14384.72
906.611	14303.37
906.924	14199.64
907.237	14242.35
907.551	14158.29
907.864	14071.28
908.177	14002.36
908.491	13927.78
908.804	13874
909.117	13844.85
909.43	13687.34
909.743	13714.68
910.056	13715.59
910.368	13663.61
910.681	13627.9
910.994	13512.65
911.307	13499.09
911.619	13337.97
911.932	13358.76
912.244	13223.85
912.557	13205.32
912.869	13194.7
913.181	13063.63
913.494	13112.89
913.806	12993.34
914.118	12885.1
914.43	12848.94
914.742	12835.38
915.054	12744.54
915.366	12735.05
915.678	12645.78
915.99	12682.39
916.302	12505
916.613	12545.45
916.925	12477.43
917.236	12489.4
917.548	12254.61
917.859	12297.54
918.171	12283.98
918.482	12182.97
918.794	12185.68
919.105	12168.28
919.416	12032.47
919.727	12087.38
920.038	11943.88
920.349	11906.82
920.66	11861.62
920.971	11818.91
921.282	11776.88
921.593	11661.85
921.903	11712.25
922.214	11612.82
922.525	11573.27
922.835	11467.96
923.146	11412.6
923.456	11390
923.767	11266.84
924.077	11358.13
924.387	11274.97
924.697	11238.59
925.008	11199.04
925.318	11089.21
925.628	11166.5
925.938	11031.14
926.248	10958.37
926.558	10913.85
926.867	10846.51
927.177	10853.51
927.487	10807.19
927.796	10673.86
928.106	10664.37
928.416	10648.32
928.725	10632.95
929.034	10575.56
929.344	10593.63
929.653	10482.68
929.962	10424.15
930.271	10361.55
930.581	10380.31
930.89	10292.4
931.199	10281.1
931.508	10222.34
931.817	10125.4
932.125	10150.71
932.434	10132.4
932.743	10050.15
933.051	9976.02
933.36	9950.03
933.669	9864.84
933.977	9853.31
934.286	9878.17
934.594	9760.66
934.902	9735.13
935.21	9682.25
935.519	9628.91
935.827	9661
936.135	9563.15
936.443	9479.31
936.751	9477.28
937.059	9498.75
937.367	9403.38
937.674	9370.84
937.982	9296.04
938.29	9316.61
938.597	9277.74
938.905	9143.05
939.213	9146.89
939.52	9105.99
939.827	9074.35
940.135	9065.76
940.442	8980.57
940.749	8938.31
941.056	8924.98
941.363	8882.72
941.67	8845.66
941.977	8734.93
942.284	8733.57
942.591	8774.47
942.898	8676.62
943.205	8649.73
943.511	8685.66
943.818	8603.86
944.125	8528.15
944.431	8553.69
944.738	8473.69
945.044	8470.75
945.35	8395.27
945.657	8316.41
945.963	8369.74
946.269	8269.63
946.575	8293.13
946.881	8245.45
947.187	8221.49
947.493	8144.43
947.799	8102.63
948.105	8075.96
948.41	7996.64
948.716	8067.82
949.022	7973.14
949.327	7917.77
949.633	7882.29
949.938	7900.6
950.244	7902.41
950.549	7784.67
950.854	7693.82
951.16	7684.33
951.465	7645.01
951.77	7539.25
952.075	7596.88
952.38	7573.15
952.685	7540.38
952.99	7528.86
953.294	7496.54
953.599	7409.08
953.904	7369.54
954.209	7363.44
954.513	7323.66
954.818	7312.82
955.122	7243.67
955.426	7244.12
955.731	7171.13
956.035	7155.76
956.339	7124.12
956.643	7142.2
956.948	7042.09
957.252	7044.35
957.556	7022.43
957.86	6953.73
958.163	6945.37
958.467	6997.34
958.771	6934.3
959.075	6839.61
959.378	6812.26
959.682	6843.45
959.985	6755.32
960.289	6691.14
960.592	6689.33
960.896	6631.48
961.199	6632.16
961.502	6639.16
961.805	6563.46
962.108	6520.52
962.411	6487.3
962.714	6433.52
963.017	6492.27
963.32	6431.48
963.623	6453.4
963.926	6381.99
964.228	6303.58
964.531	6309.23
964.833	6303.58
965.136	6273.52
965.438	6265.61
965.741	6212.28
966.043	6127.08
966.345	6095.67
966.648	6140.64
966.95	6105.16
967.252	6071.27
967.554	6070.36
967.856	6041.21
968.158	5956.47
968.46	5985.17
968.761	5944.72
969.063	5922.57
969.365	5833.76
969.666	5839.63
969.968	5808.45
970.269	5808.22
970.571	5806.42
970.872	5749.92
971.174	5657.27
971.475	5695.01
971.776	5652.52
972.077	5632.18
972.378	5649.58
972.679	5572.75
972.98	5563.71
973.281	5545.41
973.582	5549.47
973.883	5489.14
974.183	5483.49
974.484	5483.03
974.785	5395.13
975.085	5375.01
975.386	5406.2
975.686	5286.2
975.986	5290.27
976.287	5311.29
976.587	5266.54
976.887	5220.44
977.187	5225.41
977.487	5215.92
977.787	5185.41
978.087	5181.12
978.387	5145.87
978.687	5102.93
978.987	5074.91
979.286	5046.89
979.586	5072.65
979.885	5030.16
980.185	5019.77
980.484	4972.09
980.784	4920.56
981.083	4945.42
981.382	4922.82
981.682	4861.36
981.981	4866.33
982.28	4827.46
982.579	4813.22
982.878	4828.36
983.177	4777.52
983.475	4742.26
983.774	4748.36
984.073	4734.8
984.372	4659.55
984.67	4663.39
984.969	4656.16
985.267	4574.13
985.566	4584.3
985.864	4515.15
986.162	4526.9
986.461	4487.58
986.759	4518.77
987.057	4502.27
987.355	4476.05
987.653	4397.41
987.951	4444.19
988.249	4388.15
988.547	4352.89
988.844	4344.76
989.142	4371.65
989.44	4308.15
989.737	4275.83
990.035	4253.91
990.332	4246.68
990.63	4176.4
990.927	4240.35
991.224	4183.41
991.521	4164.88
991.819	4160.81
992.116	4130.98
992.413	4137.31
992.71	4106.35
993.006	4083.07
993.303	4039.23
993.6	4072
993.897	4025.45
994.193	4023.64
994.49	4008.72
994.787	3957.65
995.083	3912
995.379	3859.8
995.676	3874.04
995.972	3877.88
996.268	3834.26
996.565	3785.9
996.861	3826.35
997.157	3797.88
997.453	3727.37
997.749	3724.66
998.044	3704.55
998.34	3693.02
998.636	3678.11
998.932	3694.83
999.227	3638.11
999.523	3614.38
999.818	3616.19
1000.114	3552.92
1000.409	3593.37
1000.704	3550.43
1001	3549.75
1001.295	3484.67
1001.59	3519.47
1001.885	3469.08
1002.18	3432.24
1002.475	3451.45
1002.77	3427.95
1003.065	3382.52
1003.359	3348.17
1003.654	3378.23
1003.949	3321.28
1004.243	3321.96
1004.538	3248.52
1004.832	3269.53
1005.127	3251.45
1005.421	3228.63
1005.715	3241.74
1006.009	3206.26
1006.304	3169.65
1006.598	3144.11
1006.892	3114.28
1007.186	3098.46
1007.48	3088.29
1007.773	3081.29
1008.067	3071.8
1008.361	3040.61
1008.655	3012.82
1008.948	2990.44
1009.242	3007.39
1009.535	2976.66
1009.829	2933.04
1010.122	2979.82
1010.415	2902.31
1010.708	2921.07
1011.001	2900.28
1011.295	2842.65
1011.588	2882.2
1011.881	2819.83
1012.173	2834.52
1012.466	2804.46
1012.759	2770.79
1013.052	2775.08
1013.344	2755.87
1013.637	2767.62
1013.93	2680.85
1014.222	2706.84
1014.514	2702.77
1014.807	2665.48
1015.099	2683.11
1015.391	2620.96
1015.683	2571.47
1015.976	2601.98
1016.268	2574.86
1016.56	2586.16
1016.851	2508.2
1017.143	2508.65
1017.435	2507.07
1017.727	2458.71
1018.018	2461.87
1018.31	2471.81
1018.602	2419.84
1018.893	2418.48
1019.185	2413.28
1019.476	2413.28
1019.767	2383
1020.058	2361.99
1020.35	2335.09
1020.641	2307.52
1020.932	2303
1021.223	2323.57
1021.514	2292.16
1021.804	2249.45
1022.095	2266.17
1022.386	2251.48
1022.677	2205.61
1022.967	2239.28
1023.258	2197.24
1023.548	2159.28
1023.839	2145.04
1024.129	2125.83
1024.419	2106.85
1024.709	2122.44
1025	2092.61
1025.29	2058.27
1025.58	2070.69
1025.87	2037.25
1026.16	2006.52
1026.449	2029.11
1026.739	2022.56
1027.029	2012.62
1027.319	1960.87
1027.608	1952.28
1027.898	1924.94
1028.187	1934.65
1028.477	1951.15
1028.766	1908.66
1029.055	1884.71
1029.344	1883.13
1029.634	1867.08
1029.923	1875.9
1030.212	1848.78
1030.501	1795.67
1030.79	1782.11
1031.078	1800.19
1031.367	1804.94
1031.656	1780.53
1031.945	1735.79
1032.233	1719.97
1032.522	1703.25
1032.81	1742.79
1033.099	1725.84
1033.387	1700.53
1033.675	1705.73
1033.963	1644.04
1034.251	1650.59
1034.54	1656.02
1034.828	1645.39
1035.116	1617.6
1035.403	1634.55
1035.691	1591.61
1035.979	1616.69
1036.267	1546.41
1036.554	1561.1
1036.842	1566.98
1037.129	1513.42
1037.417	1533.31
1037.704	1524.27
1037.992	1490.82
1038.279	1505.29
1038.566	1492.86
1038.853	1492.86
1039.14	1492.86
