Data from 277_FLMS001491_001.txt Node
Date: Thu Apr 19 16:44:41 BST 2018
User: hsy
Spectrometer: FLMS00149
Trigger mode: 0
Integration Time (sec): 1.000000E-2
Scans to average: 10
Electric dark correction enabled: true
Nonlinearity correction enabled: false
Boxcar width: 0
XAxis mode: Wavelengths
Number of Pixels in Spectrum: 2048
>>>>>Begin Spectral Data<<<<<
341.393	2.1
341.776	2.1
342.16	2.1
342.543	-62.53
342.927	-82.87
343.31	-76.31
343.693	-48.06
344.077	-86.48
344.46	-75.18
344.843	-51.68
345.226	-28.4
345.61	-27.73
345.993	-5.35
346.376	0.07
346.759	7.75
347.142	19.96
347.525	48.66
347.908	53.85
348.291	69.22
348.674	101.76
349.057	97.92
349.44	145.38
349.823	158.94
350.206	158.94
350.588	226.96
350.971	252.72
351.354	249.33
351.737	270.57
352.119	277.58
352.502	303.79
352.884	318.48
353.267	329.55
353.65	330.68
354.032	364.35
354.414	333.85
354.797	325.49
355.179	363.22
355.562	341.76
355.944	390.34
356.326	396.44
356.709	390.12
357.091	366.84
357.473	394.41
357.855	390.79
358.238	386.28
358.62	377.91
359.002	373.17
359.384	386.73
359.766	381.08
360.148	408.87
360.53	386.5
360.912	393.96
361.294	394.64
361.676	379.72
362.057	376.33
362.439	392.6
362.821	379.04
363.203	365.03
363.584	353.73
363.966	369.1
364.348	358.71
364.729	339.27
365.111	363.9
365.493	357.12
365.874	384.47
366.256	353.28
366.637	356.67
367.019	371.36
367.4	382.43
367.781	352.15
368.163	358.03
368.544	383.34
368.925	368.65
369.306	370.46
369.688	382.66
370.069	367.07
370.45	364.81
370.831	363.68
371.212	387.63
371.593	363.9
371.974	388.76
372.355	381.53
372.736	388.31
373.117	340.4
373.498	387.63
373.879	393.96
374.26	388.76
374.641	370.46
375.021	378.82
375.402	412.26
375.783	370
376.163	418.14
376.544	402.55
376.925	400.06
377.305	394.86
377.686	391.7
378.066	407.52
378.447	419.72
378.827	408.42
379.208	395.99
379.588	422.88
379.968	396.9
380.349	406.61
380.729	417.91
381.109	426.73
381.489	420.85
381.87	422.88
382.25	429.66
382.63	432.15
383.01	437.57
383.39	436.9
383.77	453.84
384.15	430.34
384.53	424.92
384.91	445.03
385.29	460.4
385.67	460.85
386.049	479.15
386.429	465.37
386.809	443.9
387.189	483.22
387.568	460.4
387.948	464.24
388.328	468.53
388.707	477.12
389.087	480.51
389.466	495.42
389.846	523.22
390.225	485.48
390.605	509.21
390.984	517.57
391.363	513.28
391.743	499.94
392.122	513.05
392.501	525.25
392.881	530.45
393.26	535.42
393.639	535.88
394.018	517.8
394.397	568.42
394.776	535.2
395.155	572.48
395.534	570.9
395.913	589.89
396.292	593.05
396.671	595.54
397.05	579.94
397.429	580.39
397.808	591.02
398.186	576.33
398.565	607.06
398.944	612.71
399.323	608.19
399.701	634.4
400.08	637.12
400.458	623.33
400.837	636.66
401.215	641.64
401.594	659.71
401.972	662.43
402.351	680.73
402.729	679.37
403.107	714.4
403.486	686.15
403.864	700.84
404.242	719.6
404.62	742.42
404.999	745.14
405.377	735.87
405.755	746.72
406.133	776.1
406.511	786.49
406.889	767.06
407.267	820.39
407.645	817.45
408.023	840.05
408.401	849.77
408.779	828.3
409.156	881.86
409.534	884.12
409.912	903.32
410.29	922.98
410.667	920.5
411.045	941.29
411.422	979.03
411.8	1015.19
412.178	997.33
412.555	1035.75
412.933	1065.13
413.31	1070.32
413.687	1075.3
414.065	1118.91
414.442	1104
414.819	1125.46
415.197	1166.59
415.574	1193.71
415.951	1194.84
416.328	1220.6
416.705	1241.62
417.082	1231.22
417.46	1239.59
417.837	1288.62
418.214	1303.54
418.591	1307.61
418.967	1302.41
419.344	1350.09
419.721	1340.6
420.098	1352.13
420.475	1378.57
420.852	1426.7
421.228	1426.7
421.605	1451.56
421.982	1445.23
422.358	1485.23
422.735	1472.35
423.111	1487.94
423.488	1521.61
423.864	1570.88
424.241	1569.07
424.617	1598.45
424.994	1609.07
425.37	1602.97
425.746	1638.9
426.123	1691.33
426.499	1682.74
426.875	1714.15
427.251	1750.31
427.627	1797.09
428.003	1792.57
428.379	1818.78
428.756	1871.66
429.132	1862.39
429.507	1882.06
429.883	1945.56
430.259	1975.61
430.635	1978.55
431.011	1975.61
431.387	2057.64
431.763	2055.84
432.138	2093.12
432.514	2082.05
432.89	2135.16
433.265	2190.52
433.641	2243.18
434.016	2244.76
434.392	2271.65
434.767	2348.26
435.143	2354.58
435.518	2380.35
435.894	2425.32
436.269	2477.52
436.644	2490.17
437.02	2515.26
437.395	2520.91
437.77	2573.11
438.145	2600.45
438.52	2654.24
438.895	2684.97
439.271	2689.94
439.646	2713.45
440.021	2745.76
440.395	2773.78
440.77	2753.44
441.145	2794.8
441.52	2849.04
441.895	2879.32
442.27	2908.24
442.645	2839.54
443.019	2925.87
443.394	2909.37
443.769	2968.81
444.143	3016.71
444.518	3047.67
444.892	3035.92
445.267	3043.15
445.641	3081.57
446.016	3127.9
446.39	3148.69
446.764	3175.13
447.139	3144.62
447.513	3176.03
447.887	3238.4
448.262	3215.13
448.636	3251.74
449.01	3324.5
449.384	3342.58
449.758	3338.06
450.132	3402.24
450.506	3414.22
450.88	3482.01
451.254	3468
451.628	3510.26
452.002	3552.52
452.376	3577.83
452.75	3632.97
453.123	3680.65
453.497	3749.8
453.871	3745.96
454.244	3825.28
454.618	3852.4
454.992	3934.88
455.365	3903.7
455.739	4062.11
456.112	4036.57
456.486	4106.18
456.859	4143.01
457.232	4223.46
457.606	4258.04
457.979	4349.33
458.352	4409.9
458.725	4428.2
459.099	4489.22
459.472	4533.96
459.845	4627.97
460.218	4596.11
460.591	4725.82
460.964	4698.48
461.337	4819.15
461.71	4960.62
462.083	4982.54
462.456	4983.89
462.829	5032.25
463.201	5139.82
463.574	5199.26
463.947	5223.44
464.32	5299.82
464.692	5364.9
465.065	5405.13
465.438	5475.41
465.81	5552.47
466.183	5552.69
466.555	5734.84
466.928	5751.11
467.3	5716.76
467.672	5857.77
468.045	6032.45
468.417	5978.44
468.789	6072.91
469.161	6090.76
469.534	6245.1
469.906	6324.65
470.278	6387.47
470.65	6421.37
471.022	6530.29
471.394	6695.94
471.766	6718.76
472.138	6828.82
472.51	6950.4
472.882	7051.41
473.253	7132.54
473.625	7222.71
473.997	7358.52
474.369	7387.67
474.74	7478.74
475.112	7586.09
475.484	7770.26
475.855	7893.65
476.227	7957.6
476.598	8177.93
476.97	8223.58
477.341	8402.11
477.713	8515.55
478.084	8544.93
478.455	8849.33
478.827	8836
479.198	9151.47
479.569	9186.04
479.94	9414.96
480.311	9482.53
480.682	9683.43
481.053	9903.54
481.424	10017.43
481.795	10111.67
482.166	10249.07
482.537	10398.22
482.908	10590.75
483.279	10715.5
483.65	10974.02
484.021	11113.9
484.391	11230.96
484.762	11355.7
485.133	11473.67
485.503	11628.47
485.874	11851.51
486.244	11942.36
486.615	12248.11
486.985	12397.03
487.356	12694.43
487.726	12728.32
488.097	12939.39
488.467	13086.05
488.837	13273.62
489.207	13480.85
489.578	13661.86
489.948	13775.75
490.318	14052.36
490.688	14039.25
491.058	14286.7
491.428	14432.69
491.798	14561.5
492.168	14757.87
492.538	14962.16
492.908	15125.77
493.278	15281.93
493.648	15320.12
494.017	15509.72
494.387	15702.71
494.757	15780.9
495.126	15858.64
495.496	15914.23
495.866	16113.77
496.235	16265.86
496.605	16382.24
496.974	16449.13
497.344	16662.68
497.713	16749.01
498.082	16768.44
498.452	16873.07
498.821	17150.81
499.19	17112.62
499.559	17207.53
499.928	17315.55
500.298	17313.29
500.667	17514.41
501.036	17570.46
501.405	17754.41
501.774	17748.76
502.143	17870.56
502.512	17990.56
502.88	18068.52
503.249	18106.71
503.618	18218.8
503.987	18271.45
504.356	18458.79
504.724	18460.83
505.093	18657.21
505.462	18644.55
505.83	18685.91
506.199	18864.89
506.567	19125.22
506.936	19110.53
507.304	19196.63
507.672	19266
508.041	19441.14
508.409	19514.13
508.777	19675.94
509.145	19779.44
509.514	19811.53
509.882	19981.24
510.25	20038.87
510.618	20289.93
510.986	20177.85
511.354	20406.99
511.722	20540.1
512.09	20664.84
512.458	20618.29
512.826	20855.34
513.193	20962.46
513.561	21087.88
513.929	21105.5
514.297	21372.84
514.664	21443.8
515.032	21665.26
515.4	21724.25
515.767	21752.94
516.135	21871.81
516.502	21777.35
516.869	22170.79
517.237	22232.48
517.604	22188.41
517.972	22636.09
518.339	22609.19
518.706	22717.44
519.073	22785.91
519.44	22857.55
519.808	23054.15
520.175	23094.38
520.542	23280.14
520.909	23523.75
521.276	23521.94
521.643	23932.55
522.009	23886.67
522.376	24071.75
522.743	24109.04
523.11	24406.89
523.477	24621.12
523.843	24759.19
524.21	24937.27
524.577	25192.4
524.943	25241.21
525.31	25389.23
525.676	25602.34
526.043	25765.04
526.409	25888.43
526.776	26187.18
527.142	26248.65
527.508	26329.1
527.874	26512.82
528.241	26651.8
528.607	26738.8
528.973	26926.82
529.339	26974.28
529.705	27220.37
530.071	27282.07
530.437	27492.91
530.803	27631.66
531.169	27763.86
531.535	27800.24
531.901	27839.11
532.267	28097.18
532.632	28076.62
532.998	28205.66
533.364	28384.86
533.73	28433.67
534.095	28556.16
534.461	28711.41
534.826	28615.82
535.192	28868.92
535.557	28990.04
535.923	28914.79
536.288	28994.11
536.653	29174.22
537.019	29052.41
537.384	29303.48
537.749	29176.93
538.114	29319.98
538.479	29247.44
538.845	29342.12
539.21	29338.96
539.575	29377.83
539.94	29478.17
540.305	29519.52
540.67	29553.87
541.034	29583.02
541.399	29507.77
541.764	29618.73
542.129	29722.9
542.494	29819.63
542.858	29843.81
543.223	29691.04
543.587	29884.71
543.952	29837.25
544.316	29823.47
544.681	29894.2
545.045	30096.68
545.41	29973.29
545.774	29976.23
546.138	29989.34
546.503	30049
546.867	29978.27
547.231	30165.15
547.595	30178.03
547.959	30165.61
548.324	30213.74
548.688	30219.62
549.052	30234.3
549.416	30176.9
549.779	30209.67
550.143	30275.21
550.507	30409.21
550.871	30349.1
551.235	30366.5
551.599	30480.17
551.962	30493.51
552.326	30485.6
552.689	30497.35
553.053	30271.82
553.417	30416.67
553.78	30630.45
554.143	30552.71
554.507	30723.56
554.87	30654.41
555.234	30894.17
555.597	30637.68
555.96	30827.06
556.323	30705.93
556.686	30720.62
557.05	30931.69
557.413	30999.26
557.776	30872.03
558.139	31115.86
558.502	31102.53
558.865	31093.72
559.228	31246.71
559.59	31211.45
559.953	31255.97
560.316	31537.55
560.679	31463.2
561.041	31603.53
561.404	31752.68
561.767	31991.32
562.129	31658.67
562.492	32015.05
562.854	31939.12
563.217	31975.5
563.579	32076.97
563.941	32098.21
564.304	32281.03
564.666	32487.13
565.028	32343.4
565.39	32534.36
565.753	32720.57
566.115	32649.38
566.477	32749.27
566.839	32934.57
567.201	33213.43
567.563	32878.75
567.925	33346.54
568.287	33156.03
568.648	33292.3
569.01	33359.65
569.372	33642.58
569.734	33686.19
570.095	33859.52
570.457	33794.21
570.819	33925.28
571.18	33964.83
571.542	34217.02
571.903	33994.21
572.265	34392.84
572.626	34394.42
572.987	34430.13
573.349	34592.83
573.71	34797.12
574.071	34834.86
574.432	35084.12
574.794	35111.24
575.155	35142.2
575.516	35093.16
575.877	35247.73
576.238	35317.11
576.599	35514.62
576.96	35529.08
577.32	35741.28
577.681	35461.96
578.042	35802.07
578.403	35780.15
578.763	35838.22
579.124	35935.85
579.485	36158.44
579.845	36208.61
580.206	36166.35
580.566	36176.07
580.927	36275.05
581.287	36364.99
581.648	36352.56
582.008	36562.05
582.368	36490.86
582.728	36519.79
583.089	36537.87
583.449	36607.92
583.809	36634.14
584.169	36894.92
584.529	36779.44
584.889	37080.45
585.249	36878.42
585.609	36708.48
585.969	37119.55
586.329	36893.56
586.688	37096.72
587.048	37096.95
587.408	37144.86
587.768	37094.01
588.127	37217.17
588.487	37270.96
588.846	37521.34
589.206	37188.92
589.565	37315.02
589.925	37663.26
590.284	37499.88
590.643	37564.73
591.003	37804.05
591.362	37853.09
591.721	37797.95
592.08	37793.88
592.44	37942.8
592.799	38019.18
593.158	37810.83
593.517	37809.25
593.876	38022.35
594.235	38051.73
594.593	38118.39
594.952	38134.66
595.311	38095.34
595.67	38379.63
596.029	38493.07
596.387	38578.49
596.746	38739.17
597.104	38555.22
597.463	38473.41
597.822	38694.19
598.18	38688.77
598.538	38564.25
598.897	38938.48
599.255	38774.42
599.613	39272.26
599.972	38901.87
600.33	39091.25
600.688	38942.55
601.046	39102.55
601.404	39485.81
601.762	39306.61
602.12	39412.82
602.478	39597.67
602.836	39494.4
603.194	39382.31
603.552	39612.59
603.91	39486.04
604.268	39688.52
604.625	39667.95
604.983	39838.35
605.341	39641.29
605.698	39925.57
606.056	40133.03
606.413	39925.35
606.771	40284.89
607.128	40293.02
607.485	40068.85
607.843	40253.02
608.2	40474.94
608.557	40695.72
608.914	40507.03
609.272	40809.39
609.629	40933.46
609.986	40940.24
610.343	40907.24
610.7	41297.74
611.057	41130.51
611.414	41106.33
611.771	41068.6
612.127	41275.6
612.484	41406.21
612.841	41408.93
613.198	41380.45
613.554	41448.02
613.911	41798.29
614.267	41759.2
614.624	41765.3
614.98	41836.26
615.337	42142.92
615.693	42077.83
616.05	42043.48
616.406	42241.22
616.762	42122.35
617.118	42204.61
617.475	42106.08
617.831	42443.93
618.187	42448.9
618.543	42567.99
618.899	42726.18
619.255	42575.45
619.611	42741.09
619.967	42877.14
620.323	43013.4
620.678	42759.17
621.034	42737.48
621.39	42958.26
621.746	42876.91
622.101	43399.61
622.457	42828.77
622.812	43195.77
623.168	43065.15
623.523	43120.97
623.879	43390.34
624.234	43220.86
624.589	43214.98
624.945	43275.54
625.3	43301.98
625.655	43318.03
626.01	43294.07
626.365	43341.3
626.72	43305.82
627.075	43211.14
627.43	43385.6
627.785	43263.11
628.14	43232.38
628.495	43388.76
628.85	43400.06
629.205	43256.79
629.559	43453.62
629.914	43270.35
630.269	43288.65
630.623	43181.53
630.978	42935.44
631.332	43346.05
631.687	43343.34
632.041	43173.85
632.396	43186.28
632.75	43084.14
633.104	43193.74
633.459	43106.73
633.813	43001.43
634.167	42942.67
634.521	42956.23
634.875	42940.64
635.229	42975.21
635.583	42802.34
635.937	42666.07
636.291	42580.19
636.645	42720.76
636.999	42549.01
637.352	42731.83
637.706	42436.92
638.06	42485.06
638.413	42449.58
638.767	42357.37
639.121	42581.55
639.474	42312.63
639.828	42179.98
640.181	42311.05
640.534	42348.11
640.888	42271.95
641.241	42033.32
641.594	42210.94
641.947	42255.91
642.301	42191.96
642.654	42265.4
643.007	42152.63
643.36	42080.55
643.713	42101.79
644.066	42492.96
644.419	41962.13
644.771	41593.55
645.124	41325.31
645.477	41235.14
645.83	41088.48
646.182	41011.65
646.535	41071.53
646.888	41304.07
647.24	41024.98
647.593	41223.17
647.945	41125.54
648.298	41000.35
648.65	40970.52
649.002	40743.18
649.355	40826.79
649.707	40627.93
650.059	40770.98
650.411	41305.43
650.763	41349.27
651.115	41889.82
651.467	41824.96
651.819	41822.25
652.171	41683.04
652.523	41657.05
652.875	41706.32
653.227	41579.32
653.578	41833.32
653.93	41743.61
654.282	41515.36
654.633	41563.27
654.985	41759.65
655.337	41749.26
655.688	41783.83
656.039	41774.11
656.391	41489.6
656.742	41648.24
657.094	41759.88
657.445	41885.52
657.796	41728.46
658.147	41768.46
658.498	41880.55
658.849	41842.36
659.2	41652.53
659.551	41808.46
659.902	42015.92
660.253	41779.09
660.604	41933.21
660.955	41612.76
661.306	42034.22
661.656	41939.08
662.007	41993.77
662.358	42010.49
662.708	42057.5
663.059	42077.83
663.409	41872.87
663.76	42086.65
664.11	41973.88
664.461	42198.28
664.811	42115.35
665.161	42095.23
665.511	42089.13
665.862	42241.67
666.212	42277.38
666.562	42178.85
666.912	42127.55
667.262	42157.38
667.612	42205.51
667.962	42279.18
668.312	42153.54
668.662	42368.22
669.011	42239.64
669.361	42189.7
669.711	42228.11
670.06	42174.55
670.41	42058.17
670.76	42029.7
671.109	42182.69
671.459	42044.84
671.808	42063.6
672.157	42096.59
672.507	41946.76
672.856	41898.86
673.205	41870.38
673.554	42005.97
673.904	41958.29
674.253	42203.48
674.602	41850.95
674.951	41369.6
675.3	41136.16
675.649	41936.37
675.998	41848.24
676.346	41815.02
676.695	41779.54
677.044	41635.59
677.393	41655.92
677.741	41724.17
678.09	41658.64
678.438	41622.03
678.787	41701.12
679.135	41574.8
679.484	41286.67
679.832	41461.81
680.181	41383.39
680.529	41379.55
680.877	41280.57
681.225	41160.57
681.573	41513.33
681.922	41179.55
682.27	41074.7
682.618	41111.53
682.966	40818.66
683.314	40947.69
683.661	40825.66
684.009	40733.01
684.357	40620.92
684.705	40561.94
685.053	40564.88
685.4	40319.24
685.748	40193.36
686.095	40178.9
686.443	40070.43
686.79	39893.03
687.138	40087.15
687.485	39925.57
687.832	39771.91
688.18	39901.62
688.527	39567.39
688.874	39453.04
689.221	39448.07
689.568	39108.87
689.915	39005.15
690.262	39119.95
690.609	38963.34
690.956	38762.89
691.303	38818.26
691.65	38526.74
691.997	38423.02
692.344	38345.5
692.69	38168.56
693.037	38295.33
693.383	37865.52
693.73	37841.79
694.077	37583.94
694.423	37625.97
694.769	37463.49
695.116	37520.21
695.462	37209.49
695.808	37204.29
696.155	37191.18
696.501	36671.87
696.847	36943.96
697.193	36569.28
697.539	36541.03
697.885	36287.48
698.231	36250.42
698.577	36122.51
698.923	35956.87
699.269	35696.76
699.614	35573.82
699.96	35496.54
700.306	35572.24
700.651	35211.57
700.997	35185.59
701.342	35031.47
701.688	35037.34
702.033	34926.16
702.379	34772.49
702.724	34661.31
703.069	34648.88
703.415	34257.93
703.76	34278.04
704.105	34264.25
704.45	34020.87
704.795	33879.41
705.14	33752.18
705.485	33830.82
705.83	33613.88
706.175	33739.3
706.52	33459.76
706.865	33393.99
707.209	33302.25
707.554	33120.78
707.899	33184.96
708.243	33010.05
708.588	32820.45
708.932	32799.43
709.277	32840.11
709.621	32617.52
709.966	32417.3
710.31	32498.65
710.654	32267.92
710.998	32441.93
711.342	32285.32
711.687	32166.91
712.031	32163.52
712.375	32029.06
712.719	31954.03
713.063	31906.8
713.407	32020.7
713.75	31944.32
714.094	31732.57
714.438	31707.49
714.782	31665.23
715.125	31501.62
715.469	31773.92
715.812	31503.65
716.156	31495.51
716.499	31329.87
716.843	31393.6
717.186	31334.84
717.53	31419.58
717.873	31436.31
718.216	31362.64
718.559	31316.08
718.902	31015.75
719.246	31121.74
719.589	31046.49
719.932	31096.65
720.275	30980.95
720.617	30972.36
720.96	30940.05
721.303	31014.17
721.646	31128.52
721.989	30831.35
722.331	31114.05
722.674	30929.88
723.016	30850.78
723.359	30814.4
723.701	30954.96
724.044	30836.1
724.386	30752.48
724.729	31010.1
725.071	30881.74
725.413	30849.65
725.755	30739.83
726.097	30749.54
726.439	30828.86
726.782	30730.11
727.124	30879.94
727.465	30925.36
727.807	30836.55
728.149	30800.62
728.491	30767.4
728.833	30887.62
729.175	30914.29
729.516	30715.42
729.858	30844.91
730.199	31002.87
730.541	30937.11
730.882	30801.97
731.224	30966.71
731.565	30849.65
731.906	30891.01
732.248	30955.19
732.589	30942.08
732.93	30883.78
733.271	31074.06
733.612	30951.8
733.953	31112.92
734.294	30961.29
734.635	30949.54
734.976	31134.39
735.317	31129.42
735.658	31107.73
735.999	31185.47
736.339	31196.09
736.68	31236.54
737.021	31272.92
737.361	31213.04
737.702	31573.93
738.042	31349.08
738.383	31621.84
738.723	31506.13
739.063	31479.24
739.404	31543.65
739.744	31723.3
740.084	31548.85
740.424	31799.46
740.764	31784.55
741.104	32016.63
741.444	31886.69
741.784	31822.74
742.124	32072.45
742.464	32208.26
742.804	32204.87
743.143	32189.51
743.483	32411.42
743.823	32466.34
744.162	32461.59
744.502	32558.99
744.841	32615.03
745.181	32940.9
745.52	32817.96
745.86	32936.38
746.199	33073.1
746.538	33170.72
746.877	33412.98
747.216	33306.54
747.556	33336.14
747.895	33543.6
748.234	33734.1
748.573	33771.84
748.911	33856.36
749.25	34101.55
749.589	34000.76
749.928	34322.11
750.267	34471.25
750.605	34453.4
750.944	34649.78
751.283	34614.08
751.621	35012.94
751.96	34912.37
752.298	35120.05
752.636	35262.19
752.975	35316.2
753.313	35363.66
753.651	35723.2
753.989	35596.2
754.327	35858.79
754.666	35638.68
755.004	36084.55
755.342	36226.46
755.679	36450.19
756.017	36337.19
756.355	36556.4
756.693	36637.3
757.031	36913.68
757.368	36754.13
757.706	37097.4
758.044	37056.5
758.381	37130.85
758.719	37250.62
759.056	37552.08
759.394	37478.86
759.731	37324.06
760.068	37461.01
760.405	37590.72
760.743	37571.51
761.08	37738.29
761.417	37804.5
761.754	37720.43
762.091	37983.25
762.428	38023.25
762.765	37916.14
763.102	38191.83
763.438	38058.28
763.775	38063.25
764.112	38171.72
764.449	38289.46
764.785	38111.84
765.122	38179.86
765.458	38138.73
765.795	38234.77
766.131	38230.03
766.467	38209.46
766.804	38029.35
767.14	38087.43
767.476	38126.75
767.812	38107.32
768.148	38173.3
768.485	38159.75
768.821	38003.14
769.157	37922.46
769.492	37986.87
769.828	37801.11
770.164	37720.21
770.5	37673.43
770.836	37852.86
771.171	37691.96
771.507	37654.45
771.842	37350.73
772.178	37556.82
772.513	37417.84
772.849	37396.83
773.184	37427.34
773.519	37254.68
773.855	37094.01
774.19	37160.9
774.525	36948.93
774.86	36880
775.195	36921.81
775.53	36754.36
775.865	36642.72
776.2	36417.42
776.535	36159.12
776.87	36335.16
777.205	36244.09
777.539	36051.33
777.874	36009.29
778.209	35799.13
778.543	35945.57
778.878	35655.18
779.212	35628.06
779.547	35345.58
779.881	35556.88
780.215	35155.76
780.55	35344
780.884	35012.94
781.218	35020.17
781.552	35046.15
781.886	34886.61
782.22	34769.1
782.554	34537.02
782.888	34280.07
783.222	34303.8
783.556	34138.38
783.889	34042.57
784.223	33946.97
784.557	33962.79
784.89	34027.42
785.224	33583.37
785.557	33456.59
785.891	33448.23
786.224	33600.77
786.558	33394.67
786.891	33257.73
787.224	33052.99
787.557	32918.08
787.891	33032.65
788.224	32773.67
788.557	32836.27
788.89	32645.09
789.223	32604.64
789.556	32270.63
789.888	32302.72
790.221	32166.46
790.554	31989.51
790.887	32128.49
791.219	31797.88
791.552	31835.39
791.884	31679.92
792.217	31585.45
792.549	31534.83
792.882	31274.73
793.214	31155.18
793.546	31324.67
793.879	31195.18
794.211	30877.68
794.543	30957
794.875	30855.98
795.207	30928.97
795.539	30655.54
795.871	30683.56
796.203	30519.72
796.535	30324.25
796.867	30296.45
797.198	30105.72
797.53	30219.62
797.862	29898.49
798.193	30078.6
798.525	29818.72
798.856	29937.36
799.188	29551.61
799.519	29600.65
799.85	29327.21
800.182	29385.74
800.513	29435.68
800.844	29059.19
801.175	29239.53
801.506	29234.56
801.837	28993.43
802.168	28911.17
802.499	29043.6
802.83	28626.66
803.161	28627.34
803.491	28542.37
803.822	28706.21
804.153	28435.26
804.483	28275.94
804.814	28187.58
805.145	28260.34
805.475	28341.02
805.805	28153.91
806.136	28152.55
806.466	27933.35
806.796	28032.55
807.126	27761.15
807.457	27769.28
807.787	27739.45
808.117	27569.06
808.447	27472.12
808.777	27570.42
809.107	27322.97
809.436	27209.07
809.766	27233.03
810.096	27382.18
810.426	27117.1
810.755	27237.32
811.085	27069.64
811.414	27160.49
811.744	26940.15
812.073	26879.59
812.403	26760.95
812.732	26654.29
813.061	26781.51
813.39	26610.22
813.719	26473.05
814.049	26628.75
814.378	26487.96
814.707	26334.29
815.036	26460.17
815.365	26186.05
815.693	26108.99
816.022	26097.92
816.351	26005.94
816.68	25830.35
817.008	25956.68
817.337	25826.74
817.665	25705.84
817.994	25758.26
818.322	25731.15
818.651	25710.58
818.979	25619.06
819.307	25597.82
819.636	25617.02
819.964	25411.61
820.292	25518.5
820.62	25360.53
820.948	25529.79
821.276	25639.62
821.604	25487.08
821.932	25488.21
822.259	25396.01
822.587	25355.34
822.915	25389.46
823.243	25491.6
823.57	25357.82
823.898	25475.33
824.225	25445.96
824.553	25327.99
824.88	25417.93
825.207	25455.22
825.535	25245.28
825.862	25498.84
826.189	25347.65
826.516	25506.74
826.843	25491.38
827.17	25513.07
827.497	25462.68
827.824	25390.36
828.151	25573.86
828.478	25505.39
828.805	25637.81
829.131	25628.32
829.458	25504.48
829.785	25308.11
830.111	25431.49
830.438	25580.19
830.764	25470.36
831.09	25571.83
831.417	25342.23
831.743	25582.67
832.069	25345.84
832.395	25448.22
832.722	25446.63
833.048	25372.51
833.374	25476.01
833.7	25299.97
834.026	25379.52
834.351	25371.15
834.677	25386.75
835.003	25304.94
835.329	25300.87
835.654	25207.77
835.98	25096.59
836.306	25269.69
836.631	25135.68
836.956	25225.4
837.282	25240.76
837.607	25258.39
837.932	24994.22
838.258	25100.2
838.583	25163.02
838.908	24940.66
839.233	25048.9
839.558	24835.35
839.883	24834.22
840.208	24757.84
840.533	24806.88
840.858	24810.04
841.182	24780.21
841.507	24767.33
841.832	24558.97
842.156	24697.73
842.481	24588.58
842.805	24500.67
843.13	24449.6
843.454	24453.21
843.778	24375.7
844.103	24320.34
844.427	24126.44
844.751	24236.5
845.075	24227.46
845.399	24046.44
845.723	24138.64
846.047	24062.49
846.371	23835.15
846.695	23846.22
847.019	23629.96
847.343	23548.38
847.666	23473.8
847.99	23356.97
848.313	23323.53
848.637	23224.54
848.96	23182.06
849.284	23210.99
849.607	22975.51
849.931	22930.54
850.254	22734.84
850.577	22631.57
850.9	22545.24
851.223	22533.26
851.546	22477.22
851.869	22326.26
852.192	22447.62
852.515	22173.5
852.838	21957.23
853.161	22036.1
853.483	21862.32
853.806	21869.33
854.129	21804.7
854.451	21851.02
854.774	21625.72
855.096	21546.62
855.419	21455.1
855.741	21489
856.063	21423.24
856.385	21303.47
856.708	21193.64
857.03	21277.03
857.352	21246.74
857.674	21056.69
857.996	20980.08
858.318	20889.46
858.64	20902.8
858.961	20728.79
859.283	20680.43
859.605	20610.15
859.926	20630.71
860.248	20585.97
860.57	20572.41
860.891	20456.71
861.212	20449.25
861.534	20289.25
861.855	20394.56
862.176	20317.73
862.498	20347.56
862.819	20483.37
863.14	20206.54
863.461	20179.65
863.782	20098.3
864.103	20017.85
864.424	20078.41
864.745	20085.42
865.065	19910.51
865.386	19883.16
865.707	19932.88
866.027	19886.1
866.348	19849.72
866.668	19869.15
866.989	19736.05
867.309	19587.8
867.63	19700.12
867.95	19745.99
868.27	19604.75
868.59	19734.02
868.91	19675.71
869.23	19531.76
869.55	19424.64
869.87	19570.86
870.19	19406.57
870.51	19422.16
870.83	19488.37
871.15	19217.42
871.469	19250.19
871.789	19313.24
872.109	19225.1
872.428	19209.51
872.748	19239.11
873.067	19182.84
873.386	19211.32
873.706	19140.81
874.025	19082.05
874.344	18941.27
874.663	19070.76
874.982	18969.06
875.301	18891.1
875.62	18849.29
875.939	18766.36
876.258	18889.74
876.577	18695.85
876.896	18786.02
877.214	18704.66
877.533	18721.61
877.852	18736.53
878.17	18631.67
878.489	18709.86
878.807	18630.32
879.125	18565.91
879.444	18504.89
879.762	18490.43
880.08	18536.31
880.398	18452.92
880.716	18445.46
881.034	18402.3
881.352	18421.06
881.67	18318.68
881.988	18312.36
882.306	18205.69
882.624	18217.9
882.941	18068.97
883.259	18135.64
883.577	18052.7
883.894	18075.3
884.212	17985.36
884.529	17850
884.846	17858.36
885.164	17814.07
885.481	17713.5
885.798	17819.26
886.115	17635.54
886.432	17794.63
886.75	17590.34
887.067	17680.28
887.383	17591.02
887.7	17621.08
888.017	17301.99
888.334	17464.7
888.651	17353.51
888.967	17315.77
889.284	17259.96
889.6	17206.85
889.917	17156.91
890.233	17074.42
890.55	17148.32
890.866	17053.63
891.182	17052.5
891.498	16850.02
891.815	16931.15
892.131	16877.37
892.447	16839.85
892.763	16755.56
893.079	16664.04
893.395	16631.72
893.71	16648.45
894.026	16547.43
894.342	16577.49
894.657	16404.16
894.973	16466.98
895.289	16373.65
895.604	16282.13
895.92	16286.42
896.235	16183.6
896.55	16272.86
896.865	16080.33
897.181	15951.06
897.496	16101.57
897.811	15946.54
898.126	15896.38
898.441	15845.98
898.756	15813.44
899.071	15629.72
899.386	15721.01
899.7	15510.4
900.015	15593.33
900.33	15422.26
900.644	15414.81
900.959	15397.63
901.273	15270.18
901.588	15264.98
901.902	15243.06
902.216	15214.59
902.531	15121.03
902.845	15042.16
903.159	14997.87
903.473	14956.74
903.787	14727.37
904.101	14835.61
904.415	14744.99
904.729	14686.24
905.042	14643.75
905.356	14622.74
905.67	14603.3
905.984	14511.78
906.297	14426.13
906.611	14425.23
906.924	14343.42
907.237	14382.07
907.551	14279.24
907.864	14200.83
908.177	14145.01
908.491	14089.87
908.804	13937.78
909.117	14036.76
909.43	13902.3
909.743	13851.68
910.056	13883.77
910.368	13802.42
910.681	13673.16
910.994	13565.36
911.307	13622.99
911.619	13427.51
911.932	13472.03
912.244	13342.32
912.557	13338.7
912.869	13245.82
913.181	13262.55
913.494	13190.23
913.806	13174.19
914.118	13004.25
914.43	13001.31
914.742	12945.04
915.054	12833.86
915.366	12908.66
915.678	12822.33
915.99	12784.14
916.302	12673.18
916.613	12623.69
916.925	12514.32
917.236	12589.12
917.548	12522.23
917.859	12469.12
918.171	12373.53
918.482	12292.4
918.794	12216.02
919.105	12283.14
919.416	12128.34
919.727	12123.37
920.038	12067.78
920.349	12013.54
920.66	11956.14
920.971	11943.03
921.282	11889.48
921.593	11877.27
921.903	11708.69
922.214	11706.88
922.525	11645.19
922.835	11620.1
923.146	11559.99
923.456	11433.22
923.767	11371.07
924.077	11435.7
924.387	11297.17
924.697	11312.32
925.008	11324.07
925.318	11198.19
925.628	11155.48
925.938	11150.51
926.248	11103.96
926.558	10997.75
926.867	11031.87
927.177	10924.98
927.487	10893.34
927.796	10788.04
928.106	10800.46
928.416	10780.13
928.725	10684.76
929.034	10627.14
929.344	10683.86
929.653	10588.72
929.962	10553.92
930.271	10455.84
930.581	10440.47
930.89	10379.91
931.199	10280.03
931.508	10298.56
931.817	10371.78
932.125	10198.67
932.434	10209.52
932.743	10014.72
933.051	10036.19
933.36	10026.47
933.669	10003.2
933.977	9958.68
934.286	9909.87
934.594	9805.24
934.902	9808.4
935.21	9781.73
935.519	9696.76
935.827	9693.15
936.135	9600.27
936.443	9561.63
936.751	9503.55
937.059	9548.97
937.367	9436.66
937.674	9482.31
937.982	9433.95
938.29	9357.56
938.597	9328.64
938.905	9271.24
939.213	9226.95
939.52	9096.33
939.827	9214.07
940.135	9114.86
940.442	9071.7
940.749	9012.49
941.056	9007.29
941.363	8967.07
941.67	8915.77
941.977	8881.87
942.284	8799.84
942.591	8828.31
942.898	8772.04
943.205	8698.6
943.511	8692.5
943.818	8706.51
944.125	8599.84
944.431	8516.46
944.738	8502.67
945.044	8524.59
945.35	8445.05
945.657	8392.17
945.963	8369.57
946.269	8335.67
946.575	8316.46
946.881	8289.12
947.187	8245.05
947.493	8146.3
947.799	8168.44
948.105	8121.66
948.41	8083.93
948.716	8038.96
949.022	8017.49
949.327	7965.74
949.633	7934.33
949.938	7935.68
950.244	7880.32
950.549	7837.6
950.854	7800.77
951.16	7743.82
951.465	7698.85
951.77	7614.56
952.075	7653.2
952.38	7591.96
952.685	7634.67
952.99	7519.42
953.294	7480.78
953.599	7491.85
953.904	7456.37
954.209	7385.87
954.513	7396.03
954.818	7363.94
955.122	7359.88
955.426	7329.82
955.731	7212.76
956.035	7192.88
956.339	7194.68
956.643	7189.03
956.948	7120.79
957.252	7123.05
957.556	7081.24
957.86	7012.32
958.163	7110.39
958.467	6954.01
958.771	6918.08
959.075	6890.51
959.378	6861.59
959.682	6845.54
959.985	6808.03
960.289	6853.22
960.592	6702.95
960.896	6728.93
961.199	6735.26
961.502	6653.68
961.805	6646.9
962.108	6599.45
962.411	6534.36
962.714	6456.62
963.017	6489.84
963.32	6496.85
963.623	6457.53
963.926	6438.09
964.228	6413.69
964.531	6405.33
964.833	6407.59
965.136	6330.53
965.438	6266.35
965.741	6247.82
966.043	6189.51
966.345	6192.68
966.648	6142.96
966.95	6125.79
967.252	6093.7
967.554	6081.27
967.856	6083.53
968.158	6017.99
968.46	6018.67
968.761	5975.73
969.063	5963.76
969.365	5881.05
969.666	5930.54
969.968	5882.4
970.269	5818.67
970.571	5846.92
970.872	5782.07
971.174	5787.72
971.475	5690.54
971.776	5713.37
972.077	5665.23
972.378	5642.18
972.679	5621.62
972.98	5630.21
973.281	5553.37
973.582	5551.11
973.883	5497.78
974.183	5502.98
974.484	5473.6
974.785	5463.66
975.085	5458.68
975.386	5451.9
975.686	5359.93
975.986	5341.63
976.287	5360.83
976.587	5270.89
976.887	5269.08
977.187	5292.59
977.487	5281.29
977.787	5213.27
978.087	5219.82
978.387	5136.21
978.687	5163.78
978.987	5081.52
979.286	5104.57
979.586	5097.56
979.885	5061.86
980.185	5015.53
980.484	4994.74
980.784	4946.61
981.083	4951.13
981.382	4934.4
981.682	4938.25
981.981	4925.14
982.28	4850.34
982.579	4830.68
982.878	4816.44
983.177	4766.95
983.475	4812.37
983.774	4755.2
984.073	4682.89
984.372	4665.48
984.67	4701.87
984.969	4657.12
985.267	4640.63
985.566	4581.65
985.864	4573.96
986.162	4601.76
986.461	4550.69
986.759	4498.48
987.057	4477.02
987.355	4456.45
987.653	4453.51
987.951	4416.9
988.249	4404.7
988.547	4477.47
988.844	4374.19
989.142	4376.45
989.44	4336.45
989.737	4365.83
990.035	4290.81
990.332	4329.22
990.63	4269.79
990.927	4274.31
991.224	4240.41
991.521	4189.79
991.819	4215.55
992.116	4126.97
992.413	4187.08
992.71	4086.29
993.006	4095.56
993.303	4066.86
993.6	4106.63
993.897	4061.66
994.193	4026.41
994.49	3977.37
994.787	3974.88
995.083	3953.41
995.379	3957.25
995.676	3907.99
995.972	3856.69
996.268	3892.17
996.565	3814.89
996.861	3799.29
997.157	3842.46
997.453	3785.51
997.749	3776.92
998.044	3758.62
998.34	3761.78
998.636	3720.65
998.932	3687.66
999.227	3644.72
999.523	3652.63
999.818	3666.87
1000.114	3580.09
1000.409	3606.3
1000.704	3529.7
1001	3576.93
1001.295	3501.45
1001.59	3532.41
1001.885	3503.93
1002.18	3505.52
1002.475	3467.55
1002.77	3446.76
1003.065	3432.75
1003.359	3408.79
1003.654	3424.61
1003.949	3369.47
1004.243	3334.9
1004.538	3331.28
1004.832	3265.75
1005.127	3281.57
1005.421	3244.28
1005.715	3267.78
1006.009	3253.54
1006.304	3237.5
1006.598	3173.77
1006.892	3176.71
1007.186	3139.2
1007.48	3127.67
1007.773	3091.97
1008.067	3076.15
1008.361	3032.08
1008.655	3046.77
1008.948	3030.27
1009.242	3020.33
1009.535	2984.85
1009.829	2944.63
1010.122	2943.72
1010.415	2889.94
1010.708	2910.5
1011.001	2880.22
1011.295	2896.49
1011.588	2869.15
1011.881	2818.3
1012.173	2810.62
1012.466	2796.83
1012.759	2815.82
1013.052	2813.56
1013.344	2755.25
1013.637	2743.73
1013.93	2703.28
1014.222	2696.27
1014.514	2684.07
1014.807	2595.03
1015.099	2663.5
1015.391	2633.9
1015.683	2633.22
1015.976	2607.46
1016.268	2586.9
1016.56	2561.59
1016.851	2546.9
1017.143	2536.73
1017.435	2527.24
1017.727	2468.03
1018.018	2463.06
1018.31	2454.24
1018.602	2443.4
1018.893	2437.07
1019.185	2418.31
1019.476	2395.26
1019.767	2375.15
1020.058	2374.47
1020.35	2357.97
1020.641	2309.39
1020.932	2306
1021.223	2296.28
1021.514	2294.02
1021.804	2260.8
1022.095	2251.54
1022.386	2240.01
1022.677	2211.54
1022.967	2222.61
1023.258	2175.38
1023.548	2166.79
1023.839	2159.56
1024.129	2166.12
1024.419	2111.2
1024.709	2104.65
1025	2086.57
1025.29	2082.95
1025.58	2052.22
1025.87	2054.48
1026.16	2054.71
1026.449	1994.14
1026.739	1996.63
1027.029	2013.8
1027.319	2027.81
1027.608	1979
1027.898	1949.4
1028.187	1929.96
1028.477	1938.55
1028.766	1920.7
1029.055	1882.51
1029.344	1853.58
1029.634	1874.37
1029.923	1854.94
1030.212	1854.71
1030.501	1820.81
1030.79	1810.19
1031.078	1798.67
1031.367	1820.14
1031.656	1781.49
1031.945	1758.22
1032.233	1755.5
1032.522	1765.67
1032.81	1706.47
1033.099	1715.28
1033.387	1706.92
1033.675	1657.65
1033.963	1678.67
1034.251	1668.5
1034.54	1648.61
1034.828	1644.1
1035.116	1600.71
1035.403	1614.94
1035.691	1586.02
1035.979	1604.77
1036.267	1560.71
1036.554	1587.15
1036.842	1547.37
1037.129	1539.01
1037.417	1537.21
1037.704	1510.77
1037.992	1489.52
1038.279	1475.51
1038.566	1497.43
1038.853	1497.43
1039.14	1497.43
