Data from 277_FLMS001491_006.txt Node
Date: Thu Apr 19 16:45:09 BST 2018
User: hsy
Spectrometer: FLMS00149
Trigger mode: 0
Integration Time (sec): 1.000000E-2
Scans to average: 10
Electric dark correction enabled: true
Nonlinearity correction enabled: false
Boxcar width: 0
XAxis mode: Wavelengths
Number of Pixels in Spectrum: 2048
>>>>>Begin Spectral Data<<<<<
341.393	-17.61
341.776	-17.61
342.16	-17.61
342.543	-63.71
342.927	-69.59
343.31	-70.49
343.693	-86.54
344.077	-65.97
344.46	-65.29
344.843	-57.61
345.226	-34.56
345.61	-17.84
345.993	-27.78
346.376	3.18
346.759	21.03
347.142	10.41
347.525	54.02
347.908	57.87
348.291	82.5
348.674	93.12
349.057	103.97
349.44	129.28
349.823	172.44
350.206	187.81
350.588	205.66
350.971	251.98
351.354	251.08
351.737	289.5
352.119	306.9
352.502	284.07
352.884	321.36
353.267	338.31
353.65	301.93
354.032	315.71
354.414	345.99
354.797	329.5
355.179	356.39
355.562	351.19
355.944	371.08
356.326	358.87
356.709	359.33
357.091	361.13
357.473	391.64
357.855	382.83
358.238	393.68
358.62	381.02
359.002	384.86
359.384	370.4
359.766	367.69
360.148	389.16
360.53	367.46
360.912	384.41
361.294	397.29
361.676	385.09
362.057	388.7
362.439	365.2
362.821	379.89
363.203	378.99
363.584	365.88
363.966	362.04
364.348	374.92
364.729	362.94
365.111	359.55
365.493	377.63
365.874	357.52
366.256	391.19
366.637	353.23
367.019	354.81
367.4	371.08
367.781	354.81
368.163	372.43
368.544	396.84
368.925	367.01
369.306	374.92
369.688	359.55
370.069	349.16
370.45	364.3
370.831	377.18
371.212	384.18
371.593	351.64
371.974	363.85
372.355	360.23
372.736	368.14
373.117	399.55
373.498	376.05
373.879	379.44
374.26	328.82
374.641	368.59
375.021	396.61
375.402	390.74
375.783	391.42
376.163	409.95
376.544	416.5
376.925	397.07
377.305	404.3
377.686	393.22
378.066	409.04
378.447	393.22
378.827	407.69
379.208	425.54
379.588	419.89
379.968	417.4
380.349	426.67
380.729	415.6
381.109	421.25
381.489	397.97
381.87	412.88
382.25	421.47
382.63	436.61
383.01	427.57
383.39	442.26
383.77	443.17
384.15	417.63
384.53	457.86
384.91	422.38
385.29	440.23
385.67	464.63
386.049	448.36
386.429	454.69
386.809	456.5
387.189	448.14
387.568	437.52
387.948	468.48
388.328	470.06
388.707	476.84
389.087	466.44
389.466	484.97
389.846	492.66
390.225	512.32
390.605	488.14
390.984	506.67
391.363	500.34
391.743	510.96
392.122	507.57
392.501	531.3
392.881	510.74
393.26	516.38
393.639	530.85
394.018	542.15
394.397	559.1
394.776	540.34
395.155	546.67
395.534	550.51
395.913	562.03
396.292	568.59
396.671	576.27
397.05	562.49
397.429	589.83
397.808	567.91
398.186	562.94
398.565	600.68
398.944	588.25
399.323	605.42
399.701	610.17
400.08	610.62
400.458	615.37
400.837	625.99
401.215	635.93
401.594	662.6
401.972	639.32
402.351	625.08
402.729	667.57
403.107	668.7
403.486	671.86
403.864	698.07
404.242	715.25
404.62	683.39
404.999	703.5
405.377	727.9
405.755	753.21
406.133	747.57
406.511	739.66
406.889	772.65
407.267	759.09
407.645	799.77
408.023	819.2
408.401	810.84
408.779	836.83
409.156	857.62
409.534	892.42
409.912	871.86
410.29	910.27
410.667	912.31
411.045	935.36
411.422	947.11
411.8	963.15
412.178	984.4
412.555	973.77
412.933	1023.26
413.31	1042.02
413.687	1056.94
414.065	1077.05
414.442	1096.03
414.819	1136.48
415.197	1115.24
415.574	1171.51
415.951	1145.97
416.328	1184.39
416.705	1212.64
417.082	1200.66
417.46	1203.37
417.837	1243.82
418.214	1234.33
418.591	1251.05
418.967	1286.99
419.344	1293.99
419.721	1332.86
420.098	1323.37
420.475	1305.29
420.852	1356.14
421.228	1364.27
421.605	1386.19
421.982	1412.63
422.358	1443.37
422.735	1460.31
423.111	1448.34
423.488	1487.88
423.864	1490.82
424.241	1538.28
424.617	1536.92
424.994	1550.48
425.37	1570.37
425.746	1591.61
426.123	1615.11
426.499	1628.45
426.875	1650.14
427.251	1673.64
427.627	1670.25
428.003	1785.05
428.379	1766.3
428.756	1788.22
429.132	1807.42
429.507	1830.93
429.883	1862.79
430.259	1908.44
430.635	1954.09
431.011	1948.66
431.387	1931.49
431.763	1977.82
432.138	2033.86
432.514	2027.76
432.89	2064.14
433.265	2145.72
433.641	2129.9
434.016	2166.51
434.392	2249.22
434.767	2296.45
435.143	2254.42
435.518	2309.56
435.894	2337.58
436.269	2373.74
436.644	2393.85
437.02	2456.67
437.395	2450.57
437.77	2463
438.145	2530.34
438.52	2529.67
438.895	2605.6
439.271	2598.14
439.646	2621.64
440.021	2688.31
440.395	2699.6
440.77	2656.44
441.145	2727.4
441.52	2786.38
441.895	2770.79
442.27	2819.83
442.645	2761.75
443.019	2839.71
443.394	2871.35
443.769	2921.07
444.143	2867.96
444.518	2950.67
444.892	2957.22
445.267	2945.47
445.641	2977.34
446.016	3022.08
446.39	3079.03
446.764	3068.63
447.139	3012.82
447.513	3119.25
447.887	3114.51
448.262	3143.66
448.636	3154.28
449.01	3223.21
449.384	3222.08
449.758	3245.35
450.132	3299.14
450.506	3361.28
450.88	3359.47
451.254	3332.81
451.628	3425.23
452.002	3428.17
452.376	3438.57
452.75	3552.92
453.123	3577.1
453.497	3605.34
453.871	3667.49
454.244	3711.55
454.618	3738.22
454.992	3821.61
455.365	3812.8
455.739	3908.84
456.112	3951.1
456.486	3967.82
456.859	4034.26
457.232	4131.43
457.606	4159.9
457.979	4233.12
458.352	4288.94
458.725	4286.68
459.099	4276.51
459.472	4441.48
459.845	4512.89
460.218	4533.91
460.591	4560.12
460.964	4618.65
461.337	4714.92
461.71	4758.08
462.083	4824.29
462.456	4888.02
462.829	4871.52
463.201	5019.77
463.574	4997.62
463.947	5054.8
464.32	5209.82
464.692	5200.1
465.065	5267.67
465.438	5323.49
465.81	5388.57
466.183	5409.36
466.555	5546.08
466.928	5637.83
467.3	5567.55
467.672	5650.49
468.045	5841.22
468.417	5795.57
468.789	5834.89
469.161	5952.17
469.534	6017.48
469.906	6131.15
470.278	6217.03
470.65	6273.97
471.022	6381.54
471.394	6437.36
471.766	6514.19
472.138	6671.93
472.51	6753.73
472.882	6803.68
473.253	6908.53
473.625	7000.06
473.997	7167.96
474.369	7155.53
474.74	7296.55
475.112	7399.14
475.484	7483.89
475.855	7642.07
476.227	7709.87
476.598	7882.74
476.97	7989.63
477.341	8153.47
477.713	8190.31
478.084	8303.07
478.455	8481.37
478.827	8608.6
479.198	8877.29
479.569	8815.15
479.94	9090.85
480.311	9168.59
480.682	9409.26
481.053	9592.53
481.424	9716.82
481.795	9848.12
482.166	9976.93
482.537	10062.57
482.908	10295.11
483.279	10402.9
483.65	10620.75
484.021	10744.14
484.391	10928.99
484.762	11119.72
485.133	11184.58
485.503	11280.62
485.874	11501.63
486.244	11648.07
486.615	11854.17
486.985	11972.58
487.356	12163.76
487.726	12274.95
488.097	12600.13
488.467	12581.83
488.837	12903.18
489.207	12971.2
489.578	13231.08
489.948	13288.03
490.318	13554.91
490.688	13539.32
491.058	13837.16
491.428	13987.89
491.798	14053.2
492.168	14302.91
492.538	14390.82
492.908	14606.86
493.278	14768.89
493.648	14781.77
494.017	14912.39
494.387	15047.75
494.757	15164.14
495.126	15359.38
495.496	15468.76
495.866	15543.33
496.235	15638.92
496.605	15834.4
496.974	15890.44
497.344	16082.53
497.713	16168.63
498.082	16240.49
498.452	16343.09
498.821	16479.81
499.19	16450.43
499.559	16648.84
499.928	16783.98
500.298	16814.49
500.667	16938.78
501.036	16970.64
501.405	17123.41
501.774	17196.62
502.143	17263.52
502.512	17309.16
502.88	17615.6
503.249	17451.08
503.618	17713.45
503.987	17750.73
504.356	17839.09
504.724	17842.48
505.093	18000.22
505.462	18002.25
505.83	18128.8
506.199	18280.66
506.567	18475.46
506.936	18406.76
507.304	18616.02
507.672	18681.56
508.041	18889.69
508.409	18953.19
508.777	19029.12
509.145	19043.81
509.514	19092.85
509.882	19273.18
510.25	19372.84
510.618	19512.04
510.986	19585.26
511.354	19684.69
511.722	19927.63
512.09	19968.08
512.458	19985.03
512.826	20159.48
513.193	20149.31
513.561	20339.59
513.929	20495.75
514.297	20551.34
514.664	20626.59
515.032	20812.35
515.4	21056.41
515.767	20981.84
516.135	21135.28
516.502	21024.32
516.869	21540.01
517.237	21649.39
517.604	21374.59
517.972	21752.89
518.339	21819.78
518.706	21892.32
519.073	22065.42
519.44	22155.14
519.808	22380.89
520.175	22339.99
520.542	22614.11
520.909	22817.27
521.276	22917.6
521.643	23174.09
522.009	23188.78
522.376	23276.69
522.743	23412.05
523.11	23685.27
523.477	23851.59
523.843	23971.14
524.21	24169.77
524.577	24254.52
524.943	24472.82
525.31	24535.87
525.676	24709.19
526.043	24974.95
526.409	24965.46
526.776	25113.03
527.142	25295.17
527.508	25437.31
527.874	25692.67
528.241	25680.69
528.607	25872.78
528.973	26183.28
529.339	26047.92
529.705	26361.13
530.071	26379.21
530.437	26630.73
530.803	26836.37
531.169	26819.65
531.535	26903.94
531.901	27035.91
532.267	27140.32
532.632	27327.21
532.998	27392.06
533.364	27366.3
533.73	27434.1
534.095	27661.89
534.461	27671.6
534.826	27766.06
535.192	27852.84
535.557	27943.91
535.923	28025.94
536.288	28103.46
536.653	28199.05
537.019	28104.13
537.384	28298.03
537.749	28239.27
538.114	28335.09
538.479	28273.62
538.845	28246.5
539.21	28345.94
539.575	28460.28
539.94	28434.52
540.305	28632.93
540.67	28538.92
541.034	28651.24
541.399	28684.23
541.764	28718.81
542.129	28795.42
542.494	28785.25
542.858	28853.49
543.223	28790.67
543.587	28819.14
543.952	28736.66
544.316	28867.5
544.681	28833.15
545.045	29102.3
545.41	28945.24
545.774	28939.59
546.138	28946.82
546.503	29033.15
546.867	29114.95
547.231	29168.29
547.595	29104.11
547.959	29204.9
548.324	29195.4
548.688	29199.47
549.052	29200.15
549.416	29145.91
549.779	29284.44
550.143	29283.99
550.507	29372.35
550.871	29480.14
551.235	29336.19
551.599	29624.77
551.962	29413.03
552.326	29552.01
552.689	29516.3
553.053	29324.21
553.417	29352.24
553.78	29627.71
554.143	29656.41
554.507	29663.41
554.87	29557.88
555.234	29865.22
555.597	29554.27
555.96	29758.55
556.323	29827.25
556.686	29815.95
557.05	29790.87
557.413	30030.41
557.776	29851.66
558.139	30039
558.502	30017.53
558.865	30083.06
559.228	30371.64
559.59	30229.28
559.953	30326.45
560.316	30481.92
560.679	30472.21
561.041	30633.78
561.404	30682.82
561.767	30835.81
562.129	30576.16
562.492	30881.01
562.854	30807.34
563.217	30781.8
563.579	30908.13
563.941	31032.19
564.304	31141.12
564.666	31374.78
565.028	31125.52
565.39	31289.13
565.753	31376.59
566.115	31571.39
566.477	31538.62
566.839	31687.54
567.201	32038.27
567.563	31701.33
567.925	32095.89
568.287	31908.1
568.648	32107.19
569.01	32236.68
569.372	32553.28
569.734	32354.87
570.095	32522.55
570.457	32738.59
570.819	32675.54
571.18	32541.76
571.542	32866.27
571.903	32919.37
572.265	33035.3
572.626	33051.8
572.987	33111.01
573.349	33308.52
573.71	33386.03
574.071	33463.99
574.432	33611.56
574.794	33740.82
575.155	33810.88
575.516	33779.24
575.877	33856.3
576.238	33764.32
576.599	34054.03
576.96	34143.75
577.32	34139.68
577.681	34140.81
578.042	34496.73
578.403	34395.27
578.763	34419.45
579.124	34503.06
579.485	34621.48
579.845	34983.95
580.206	34690.85
580.566	34824.86
580.927	34807.46
581.287	34953.67
581.648	34795.03
582.008	35135.14
582.368	35127.23
582.728	35102.14
583.089	35168.81
583.449	35227.79
583.809	35255.58
584.169	35491.74
584.529	35277.5
584.889	35614.22
585.249	35444.96
585.609	35401.8
585.969	35633.65
586.329	35670.49
586.688	35816.02
587.048	35735.35
587.408	35694.44
587.768	35768.34
588.127	35877.94
588.487	35815.34
588.846	36117.93
589.206	35915.45
589.565	35859.64
589.925	36209.91
590.284	36111.83
590.643	36161.78
591.003	36184.83
591.362	36518.83
591.721	36420.75
592.08	36426.63
592.44	36704.36
592.799	36626.4
593.158	36427.53
593.517	36544.36
593.876	36785.26
594.235	36614.42
594.593	36735.77
594.952	36926.73
595.311	36829.1
595.67	37056.21
596.029	37221.63
596.387	37237
596.746	37512.25
597.104	37199.26
597.463	37160.84
597.822	37560.16
598.18	37275.87
598.538	37387.96
598.897	37683.54
599.255	37396.54
599.613	37851
599.972	37582.53
600.33	37573.72
600.688	37709.53
601.046	37836.08
601.404	38101.39
601.762	38121.5
602.12	38151.78
602.478	38081.27
602.836	38200.82
603.194	38200.37
603.552	38161.5
603.91	38165.34
604.268	38222.29
604.625	38304.77
604.983	38547.7
605.341	38321.27
605.698	38684.42
606.056	38858.2
606.413	38648.49
606.771	38775.72
607.128	38906.34
607.485	38826.56
607.843	38735.72
608.2	39062.26
608.557	39229.49
608.914	39088.03
609.272	39263.16
609.629	39467.45
609.986	39564.17
610.343	39431.75
610.7	39721.46
611.057	39721
611.414	39608.92
611.771	39764.84
612.127	39957.38
612.484	39920.55
612.841	40146.53
613.198	39916.93
613.554	40014.56
613.911	40272.18
614.267	40321.44
614.624	40301.1
614.98	40402.12
615.337	40661.32
615.693	40596.01
616.05	40672.17
616.406	40854.53
616.762	40826.96
617.118	40836.45
617.475	40882.55
617.831	41083.23
618.187	41115.09
618.543	41026.05
618.899	41334.75
619.255	41174.75
619.611	41268.31
619.967	41371.81
620.323	41602.08
620.678	41250.45
621.034	41360.73
621.39	41469.88
621.746	41472.6
622.101	41822.42
622.457	41416.1
622.812	41622.42
623.168	41762.76
623.523	41722.76
623.879	41752.14
624.234	41675.75
624.589	41701.29
624.945	41785.13
625.3	41886.6
625.655	41856.31
626.01	41934.73
626.365	42015.18
626.72	41836.65
627.075	41790.33
627.43	41793.04
627.785	41843.66
628.14	41898.57
628.495	41986.71
628.85	41848.41
629.205	41715.08
629.559	42059.47
629.914	41753.04
630.269	41829.65
630.623	41739.48
630.978	41649.77
631.332	41765.7
631.687	41749.2
632.041	41635.98
632.396	41780.16
632.75	41700.39
633.104	41724.57
633.459	41642.08
633.813	41615.87
634.167	41561.41
634.521	41635.98
634.875	41537
635.229	41460.62
635.583	41414.52
635.937	41259.49
636.291	41454.74
636.645	41388.76
636.999	41225.82
637.352	41375.42
637.706	41169.78
638.06	41319.15
638.413	41110.57
638.767	41027.64
639.121	41155.09
639.474	41034.42
639.828	41019.05
640.181	40981.31
640.534	41085.71
640.888	40867.41
641.241	40775.44
641.594	40801.43
641.947	40841.2
642.301	40847.75
642.654	40916.9
643.007	40763.46
643.36	40805.04
643.713	40707.42
644.066	40709.68
644.419	40608.89
644.771	40161.67
645.124	39904.95
645.477	39870.15
645.83	39649.14
646.182	39623.15
646.535	39580.89
646.888	39755.58
647.24	39657.73
647.593	39832.41
647.945	39771.17
648.298	39553.32
648.65	39475.59
649.002	39459.32
649.355	39210.51
649.707	39145.43
650.059	39385.87
650.411	39794.22
650.763	39956.7
651.115	40421.1
651.467	40478.95
651.819	40339.07
652.171	40372.96
652.523	40136.81
652.875	40242.57
653.227	40172.07
653.578	40534.32
653.93	40423.36
654.282	40193.99
654.633	40137.26
654.985	40450.02
655.337	40295
655.688	40324.83
656.039	40542.45
656.391	40213.19
656.742	40267.2
657.094	40182.91
657.445	40319.86
657.796	40291.38
658.147	40295.9
658.498	40461.1
658.849	40490.7
659.2	40353.53
659.551	40306.98
659.902	40573.41
660.253	40411.38
660.604	40696.8
660.955	40375.45
661.306	40625.84
661.656	40518.95
662.007	40623.13
662.358	40634.88
662.708	40618.83
663.059	40650.24
663.409	40516.24
663.76	40798.94
664.11	40789.22
664.461	40873.52
664.811	40802.56
665.161	40810.01
665.511	40879.39
665.862	40836.23
666.212	40810.24
666.562	40939.73
666.912	40810.69
667.262	40663.58
667.612	40707.42
667.962	40711.49
668.312	40756.46
668.662	40885.94
669.011	40772.73
669.361	40708.1
669.711	40804.14
670.06	40619.29
670.41	40557.82
670.76	40589
671.109	40908.32
671.459	40773.63
671.808	40756.91
672.157	40789
672.507	40600.3
672.856	40526.63
673.205	40697.02
673.554	40613.18
673.904	40610.47
674.253	40839.17
674.602	40620.41
674.951	40065.4
675.3	39941.34
675.649	40633.52
675.998	40451.38
676.346	40560.53
676.695	40586.07
677.044	40313.76
677.393	40338.61
677.741	40473.53
678.09	40327.99
678.438	40233.31
678.787	40230.82
679.135	40343.36
679.484	40064.95
679.832	40185.85
680.181	39942.47
680.529	40016.14
680.877	39787.44
681.225	39881.9
681.573	40192.86
681.922	39875.58
682.27	39871.28
682.618	39629.48
682.966	39664.96
683.314	39588.8
683.661	39651.17
684.009	39314.01
684.357	39214.12
684.705	39097.74
685.053	39203.73
685.4	39051.42
685.748	38946.33
686.095	38986.79
686.443	38516.74
686.79	38631.54
687.138	38761.48
687.485	38681.93
687.832	38599
688.18	38534.37
688.527	38234.94
688.874	38213.02
689.221	38176.86
689.568	37929.64
689.915	37766.7
690.262	37900.49
690.609	37818.45
690.956	37618.23
691.303	37448.3
691.65	37283.55
691.997	37261.18
692.344	37059.83
692.69	36977.8
693.037	37025.71
693.383	36690.8
693.73	36670.91
694.077	36412.39
694.423	36511.6
694.769	36321.32
695.116	36280.19
695.462	35989.8
695.808	35847.66
696.155	35891.73
696.501	35658.06
696.847	35646.76
697.193	35170.61
697.539	35370.84
697.885	34990.28
698.231	34958.42
698.577	34975.37
698.923	34780.12
699.269	34628.71
699.614	34450.86
699.96	34314.14
700.306	34291.99
700.651	34163.86
700.997	34082.73
701.342	33996.18
701.688	33875.96
702.033	33804.77
702.379	33668.28
702.724	33508.74
703.069	33515.52
703.415	33024
703.76	33122.76
704.105	33103.1
704.45	33013.84
704.795	32819.94
705.14	32741.75
705.485	32811.35
705.83	32405.04
706.175	32468.54
706.52	32448.65
706.865	32194.42
707.209	32126.63
707.554	31988.1
707.899	32003.01
708.243	31878.72
708.588	31887.31
708.932	31640.31
709.277	31694.77
709.621	31608.9
709.966	31483.03
710.31	31450.49
710.654	31215.24
710.998	31213.2
711.342	31098.63
711.687	31049.14
712.031	30974.11
712.375	30984.74
712.719	30935.7
713.063	30878.52
713.407	31056.6
713.75	30718.75
714.094	30828.58
714.438	30599.66
714.782	30507.23
715.125	30441.93
715.469	30626.1
715.812	30237.86
716.156	30299.56
716.499	30325.09
716.843	30330.29
717.186	30205.55
717.53	30407.58
717.873	30358.09
718.216	30276.96
718.559	30229.95
718.902	30062.05
719.246	30073.8
719.589	30079.45
719.932	29895.5
720.275	30002.16
720.617	30007.81
720.96	29968.72
721.303	29927.14
721.646	30029.06
721.989	29757.2
722.331	29917.65
722.674	29810.76
723.016	29937.31
723.359	29796.52
723.701	29939.79
724.044	29799.23
724.386	29538.22
724.729	29911.32
725.071	29789.97
725.413	29894.82
725.755	29705.67
726.097	29773.47
726.439	29755.84
726.782	29639.91
727.124	29742.73
727.465	29810.3
727.807	29697.76
728.149	29691.44
728.491	29693.02
728.833	29697.09
729.175	29667.71
729.516	29611.66
729.858	29591.33
730.199	29759.91
730.541	29817.99
730.882	29740.48
731.224	29763.3
731.565	29714.49
731.906	29759.23
732.248	29892.34
732.589	29788.16
732.93	29744.54
733.271	29837.65
733.612	29798.55
733.953	29998.32
734.294	29951.77
734.635	29816.41
734.976	30027.25
735.317	29967.81
735.658	30040.81
735.999	29932.33
736.339	30107.25
736.68	30166.9
737.021	30181.59
737.361	30137.75
737.702	30380.01
738.042	30299.78
738.383	30312.66
738.723	30471.98
739.063	30418.42
739.404	30531.64
739.744	30552.43
740.084	30565.31
740.424	30745.87
740.764	30812.09
741.104	30955.81
741.444	30862.03
741.784	30900.44
742.124	31088.01
742.464	31132.08
742.804	31158.97
743.143	31185.18
743.483	31386.08
743.823	31342.92
744.162	31512.63
744.502	31620.43
744.841	31644.83
745.181	31798.95
745.52	31572.52
745.86	32110.13
746.199	32174.99
746.538	32184.48
746.877	32444.36
747.216	32420.63
747.556	32463.57
747.895	32581.98
748.234	32631.47
748.573	32782.65
748.911	32861.75
749.25	33057.22
749.589	32960.5
749.928	33301.29
750.267	33369.76
750.605	33347.61
750.944	33588.06
751.283	33810.88
751.621	33899.69
751.96	33826.47
752.298	34170.19
752.636	34133.81
752.975	34248.38
753.313	34422.61
753.651	34707.58
753.989	34643.4
754.327	34897.63
754.666	34763.39
755.004	35068.92
755.342	35115.47
755.679	35381.68
756.017	35334
756.355	35775.57
756.693	35631.39
757.031	35830.48
757.368	35810.6
757.706	36064.15
758.044	36136.92
758.381	36169.01
758.719	36254.2
759.056	36380.98
759.394	36477.7
759.731	36384.82
760.068	36567.87
760.405	36786.84
760.743	36589.33
761.08	36860.51
761.417	36790.23
761.754	36954.3
762.091	37006.95
762.428	36894.41
762.765	36786.62
763.102	37003.56
763.438	37037.23
763.775	36899.38
764.112	37046.27
764.449	37170.56
764.785	37125.82
765.122	37035.42
765.458	37035.2
765.795	37107.51
766.131	37180.96
766.467	37214.18
766.804	36924.02
767.14	36846.73
767.476	37081.07
767.812	37052.83
768.148	37039.94
768.485	37036.78
768.821	36799.05
769.157	36918.37
769.492	36919.5
769.828	36868.2
770.164	36608.09
770.5	36618.26
770.836	36678.6
771.171	36581.65
771.507	36564.02
771.842	36345.5
772.178	36486.96
772.513	36392.5
772.849	36303.24
773.184	36345.73
773.519	36192.73
773.855	36100.53
774.19	36122.68
774.525	35900.54
774.86	35933.98
775.195	35748.45
775.53	35725.63
775.865	35471.4
776.2	35413.77
776.535	35147.34
776.87	35298.97
777.205	35046.55
777.539	34976.72
777.874	35175.59
778.209	34768.82
778.543	34818.99
778.878	34646.56
779.212	34613.12
779.547	34473.68
779.881	34485.89
780.215	34274.82
780.55	34394.59
780.884	34048.61
781.218	33941.27
781.552	34108.95
781.886	33858.11
782.22	33668.28
782.554	33567.72
782.888	33395.07
783.222	33428.29
783.556	33208.63
783.889	33048.18
784.223	32816.33
784.557	32871.01
784.89	32990.33
785.224	32652.94
785.557	32584.92
785.891	32523.23
786.224	32488.2
786.558	32410.91
786.891	32139.06
787.224	32127.98
787.557	31959.4
787.891	32009.79
788.224	31699.97
788.557	31756.69
788.89	31746.3
789.223	31522.8
789.556	31426.31
789.888	31456.36
790.221	31285.52
790.554	31139.31
790.887	31136.37
791.219	31093.89
791.552	30811.63
791.884	30701.81
792.217	30727.12
792.549	30520.34
792.882	30385.43
793.214	30250.97
793.546	30481.02
793.879	30251.2
794.211	29970.53
794.543	30158.54
794.875	29920.81
795.207	29959.68
795.539	29827.25
795.871	29917.87
796.203	29723.3
796.535	29405.57
796.867	29481.5
797.198	29228.17
797.53	29284.89
797.862	29020.49
798.193	29175.52
798.525	28912.47
798.856	29056.2
799.188	28657.79
799.519	28623.44
799.85	28570.56
800.182	28557.23
800.513	28598.13
800.844	28212.83
801.175	28441.53
801.506	28491.02
801.837	28219.84
802.168	28143.68
802.499	28114.76
802.83	27981.43
803.161	27841.99
803.491	27820.07
803.822	27864.82
804.153	27695.56
804.483	27538.27
804.814	27381.22
805.145	27453.53
805.475	27434.77
805.805	27270.03
806.136	27220.32
806.466	27164.05
806.796	27163.14
807.126	26948.46
807.457	26922.7
807.787	26844.73
808.117	26846.77
808.447	26729.48
808.777	26814.9
809.107	26663.27
809.436	26559.54
809.766	26462.14
810.096	26378.98
810.426	26430.51
810.755	26420.79
811.085	26246.33
811.414	26325.42
811.744	26184.64
812.073	26060.57
812.403	26079.33
812.732	25747.36
813.061	26117.52
813.39	25683.63
813.719	25681.37
814.049	25897.19
814.378	25832.56
814.707	25600.47
815.036	25678.43
815.365	25587.36
815.693	25328.16
816.022	25285.45
816.351	25329.29
816.68	25214.04
817.008	25312.79
817.337	24956.87
817.665	25117.55
817.994	25079.58
818.322	25154.61
818.651	25062.41
818.979	24859.93
819.307	24859.25
819.636	24717.1
819.964	24732.47
820.292	24896.76
820.62	24777.22
820.948	24776.99
821.276	25008.17
821.604	24774.5
821.932	24932.92
822.259	24724.11
822.587	24730.66
822.915	24692.25
823.243	24773.6
823.57	24644.56
823.898	24812.92
824.225	24710.78
824.553	24638.24
824.88	24757.33
825.207	24814.95
825.535	24635.3
825.862	24748.06
826.189	24667.16
826.516	24677.33
826.843	24835.75
827.17	24773.37
827.497	24696.99
827.824	24878.68
828.151	24958
828.478	24732.47
828.805	24918.91
829.131	24931.11
829.458	24727.95
829.785	24661.29
830.111	24768.18
830.438	24804.33
830.764	24729.31
831.09	24866.93
831.417	24662.64
831.743	24723.21
832.069	24763.43
832.395	24769.98
832.722	24790.77
833.048	24612.7
833.374	24797.78
833.7	24602.98
834.026	24715.52
834.351	24546.04
834.677	24688.18
835.003	24566.37
835.329	24636.65
835.654	24500.61
835.98	24517.11
836.306	24608.18
836.631	24416.32
836.956	24666.71
837.282	24614.51
837.607	24496.77
837.932	24458.13
838.258	24453.61
838.583	24388.07
838.908	24221.3
839.233	24402.31
839.558	24160.28
839.883	24097.46
840.208	24097.91
840.533	24057.69
840.858	24087.52
841.182	24059.04
841.507	24032.6
841.832	23951.47
842.156	24010.91
842.481	23877.8
842.805	23831.48
843.13	23763.23
843.454	23709
843.778	23703.35
844.103	23649.79
844.427	23627.64
844.751	23537.7
845.075	23523.46
845.399	23532.28
845.723	23274.43
846.047	23372.73
846.371	23128.45
846.695	23120.08
847.019	23055.45
847.343	22904.72
847.666	22755.35
847.99	22738.17
848.313	22586.31
848.637	22547.22
848.96	22491.4
849.284	22543.6
849.607	22284.17
849.931	22309.03
850.254	22208.02
850.577	21970.96
850.9	21933
851.223	21826.56
851.546	21779.55
851.869	21571.42
852.192	21833.56
852.515	21467.25
852.838	21482.84
853.161	21517.19
853.483	21217.08
853.806	21388.83
854.129	21182.96
854.451	21181.15
854.774	20966.02
855.096	20972.8
855.419	20915.17
855.741	20913.81
856.063	20726.47
856.385	20574.84
856.708	20601.28
857.03	20579.81
857.352	20589.3
857.674	20522.19
857.996	20387.05
858.318	20252.36
858.64	20339.82
858.961	20143.44
859.283	20207.39
859.605	20112.25
859.926	20082.42
860.248	20157
860.57	19992.26
860.891	19884.01
861.212	19876.55
861.534	19814.63
861.855	19660.06
862.176	19709.1
862.498	19820.51
862.819	19745.48
863.14	19641.31
863.461	19545.94
863.782	19583.23
864.103	19557.47
864.424	19420.75
864.745	19501.2
865.065	19359.96
865.386	19315.66
865.707	19299.85
866.027	19261.65
866.348	19223.92
866.668	19217.59
866.989	19184.82
867.309	19079.29
867.63	19168.32
867.95	19127.87
868.27	19042.23
868.59	19059.17
868.91	19005.16
869.23	18998.84
869.55	18794.77
869.87	18927.2
870.19	18793.42
870.51	18769.69
870.83	18927.2
871.15	18732.63
871.469	18747.77
871.789	18699.18
872.109	18739.63
872.428	18586.64
872.748	18721.33
873.067	18611.95
873.386	18594.1
873.706	18533.54
874.025	18542.58
874.344	18387.1
874.663	18527.66
874.982	18427.33
875.301	18402.02
875.62	18304.17
875.939	18371.06
876.258	18314.79
876.577	18181.01
876.896	18319.08
877.214	18195.69
877.533	18228.69
877.852	18182.36
878.17	18155.47
878.489	18149.59
878.807	18025.75
879.125	17987.79
879.444	18001.35
879.762	17980.78
880.08	18032.53
880.398	17868.02
880.716	18006.32
881.034	17734.69
881.352	17921.12
881.67	17838.87
881.988	17716.38
882.306	17664.41
882.624	17778.53
882.941	17665.09
883.259	17561.36
883.577	17516.39
883.894	17510.74
884.212	17446.34
884.529	17454.92
884.846	17364.53
885.164	17260.8
885.481	17288.83
885.798	17331.08
886.115	17182.61
886.432	17286.57
886.75	17146.68
887.067	17103.52
887.383	17070.98
887.7	17013.35
888.017	16937.2
888.334	16945.56
888.651	16863.75
888.967	16767.03
889.284	16724.77
889.6	16718.22
889.917	16648.16
890.233	16647.03
890.55	16596.87
890.866	16504.89
891.182	16470.99
891.498	16553.93
891.815	16342.64
892.131	16416.31
892.447	16352.58
892.763	16328.85
893.079	16305.35
893.395	16208.18
893.71	16228.51
894.026	16081.63
894.342	15994.4
894.657	15894.06
894.973	15903.1
895.289	15970.22
895.604	15793.72
895.92	15721.18
896.235	15656.1
896.55	15712.37
896.865	15677.12
897.181	15567.74
897.496	15584.24
897.811	15495.88
898.126	15391.7
898.441	15373.4
898.756	15346.28
899.071	15256.79
899.386	15255.21
899.7	15079.84
900.015	15039.17
900.33	15053.18
900.644	14989.68
900.959	14982.9
901.273	14847.76
901.588	14891.15
901.902	14800.3
902.216	14772.96
902.531	14664.71
902.845	14673.07
903.159	14516.47
903.473	14392.18
903.787	14333.2
904.101	14337.26
904.415	14445.28
904.729	14305.4
905.042	14250.94
905.356	14195.35
905.67	14206.87
905.984	14077.84
906.297	14048.46
906.611	14007.33
906.924	13910.61
907.237	13918.52
907.551	13885.75
907.864	13747.9
908.177	13786.32
908.491	13654.12
908.804	13630.62
909.117	13608.24
909.43	13488.7
909.743	13421.13
910.056	13419.77
910.368	13330.51
910.681	13278.54
910.994	13252.1
911.307	13180.23
911.619	12973.23
911.932	12996.96
912.244	12965.77
912.557	12964.42
912.869	12899.34
913.181	12747.93
913.494	12774.37
913.806	12687.36
914.118	12686.23
914.43	12646.69
914.742	12597.87
915.054	12492.34
915.366	12443.98
915.678	12372.12
915.99	12405.79
916.302	12274.72
916.613	12224.33
916.925	12234.04
917.236	12145.01
917.548	12108.62
917.859	12071.34
918.171	12025.91
918.482	11968.06
918.794	11927.84
919.105	11895.29
919.416	11798.12
919.727	11711.12
920.038	11684.9
920.349	11568.52
920.66	11606.26
920.971	11538.24
921.282	11484.46
921.593	11524.46
921.903	11352.26
922.214	11379.15
922.525	11275.65
922.835	11231.36
923.146	11186.16
923.456	11118.59
923.767	11051.7
924.077	11045.37
924.387	11006.05
924.697	10971.7
925.008	10990.01
925.318	10895.32
925.628	10873.85
925.938	10784.14
926.248	10633.63
926.558	10636.57
926.867	10685.38
927.177	10557.25
927.487	10493.52
927.796	10543.47
928.106	10486.74
928.416	10473.64
928.725	10466.63
929.034	10382.34
929.344	10377.59
929.653	10345.5
929.962	10300.53
930.271	10217.6
930.581	10142.12
930.89	10057.6
931.199	10034.33
931.508	10060.99
931.817	10020.99
932.125	9933.99
932.434	9873.65
932.743	9838.85
933.051	9747.33
933.36	9817.84
933.669	9729.02
933.977	9658.74
934.286	9627.78
934.594	9609.48
934.902	9458.07
935.21	9448.58
935.519	9519.54
935.827	9451.74
936.135	9336.27
936.443	9310.73
936.751	9280.9
937.059	9254.69
937.367	9254.23
937.674	9253.56
937.982	9172.65
938.29	9090.4
938.597	9092.43
938.905	9014.69
939.213	8938.54
939.52	8914.81
939.827	8956.39
940.135	8878.42
940.442	8860.12
940.749	8783.29
941.056	8759.56
941.363	8690.41
941.67	8743.51
941.977	8665.1
942.284	8574.93
942.591	8597.08
942.898	8563.86
943.205	8510.3
943.511	8442.05
943.818	8506.01
944.125	8364.31
944.431	8287.25
944.738	8349.63
945.044	8305.78
945.35	8234.83
945.657	8252
945.963	8157.31
946.269	8119.8
946.575	8130.2
946.881	8023.08
947.187	8056.53
947.493	8035.28
947.799	7983.31
948.105	7875.51
948.41	7809.75
948.716	7871.67
949.022	7812.69
949.327	7794.39
949.633	7727.04
949.938	7722.97
950.244	7687.27
950.549	7665.58
950.854	7625.35
951.16	7532.92
951.465	7445.47
951.77	7462.87
952.075	7422.42
952.38	7378.13
952.685	7422.19
952.99	7329.99
953.294	7389.65
953.599	7320.27
953.904	7269.65
954.209	7190.11
954.513	7218.13
954.818	7159.6
955.122	7140.84
955.426	7111.47
955.731	7044.57
956.035	7042.31
956.339	6931.58
956.643	6909.21
956.948	6886.39
957.252	6907.18
957.556	6878.7
957.86	6862.66
958.163	6877.35
958.467	6824.69
958.771	6730.23
959.075	6748.99
959.378	6644.13
959.682	6717.13
959.985	6630.35
960.289	6595.09
960.592	6570.24
960.896	6534.98
961.199	6554.19
961.502	6536.34
961.805	6507.64
962.108	6348.55
962.411	6417.92
962.714	6365.27
963.017	6303.35
963.32	6337.02
963.623	6348.1
963.926	6323.69
964.228	6241.66
964.531	6233.97
964.833	6207.53
965.136	6158.5
965.438	6159.63
965.741	6066.52
966.043	6047.76
966.345	6114.88
966.648	6034.21
966.95	6026.52
967.252	5966.64
967.554	5973.42
967.856	5895
968.158	5920.99
968.46	5870.14
968.761	5829.24
969.063	5784.95
969.365	5780.43
969.666	5781.78
969.968	5731.16
970.269	5652.97
970.571	5657.04
970.872	5656.14
971.174	5611.17
971.475	5544.95
971.776	5593.77
972.077	5563.71
972.378	5463.6
972.679	5487.55
972.98	5425.18
973.281	5469.7
973.582	5452.75
973.883	5455.01
974.183	5350.83
974.484	5343.83
974.785	5296.37
975.085	5287.56
975.386	5298.86
975.686	5244.4
975.986	5241.01
976.287	5166.66
976.587	5147.22
976.887	5126.88
977.187	5136.38
977.487	5122.82
977.787	5058.41
978.087	5031.07
978.387	5021.58
978.687	5007.57
978.987	4974.57
979.286	4982.26
979.586	4991.52
979.885	4876.72
980.185	4873.33
980.484	4836.72
980.784	4883.73
981.083	4798.76
981.382	4823.62
981.682	4797.4
981.981	4765.99
982.28	4732.77
982.579	4741.36
982.878	4741.13
983.177	4663.17
983.475	4649.38
983.774	4638.31
984.073	4552.44
984.372	4583.85
984.67	4566.45
984.969	4590.85
985.267	4502.49
985.566	4515.83
985.864	4495.94
986.162	4450.97
986.461	4403.06
986.759	4386.11
987.057	4383.18
987.355	4347.02
987.653	4370.75
987.951	4312.9
988.249	4338.21
988.547	4271.09
988.844	4237.42
989.142	4294.36
989.44	4251.43
989.737	4232.45
990.035	4160.81
990.332	4194.71
990.63	4174.59
990.927	4147.02
991.224	4137.53
991.521	4087.36
991.819	4045.78
992.116	4059.34
992.413	4046.69
992.71	3990.64
993.006	3973.69
993.303	3984.77
993.6	3973.47
993.897	3938.67
994.193	3928.27
994.49	3880.59
994.787	3898.67
995.083	3883.75
995.379	3848.27
995.676	3809.41
995.972	3800.59
996.268	3736.64
996.565	3715.62
996.861	3741.38
997.157	3733.02
997.453	3702.97
997.749	3691.67
998.044	3653.93
998.34	3661.16
998.636	3660.71
998.932	3604.67
999.227	3569.41
999.523	3563.76
999.818	3533.25
1000.114	3522.41
1000.409	3477.44
1000.704	3505.68
1001	3478.34
1001.295	3451.22
1001.59	3422.75
1001.885	3430.43
1002.18	3390.66
1002.475	3367.38
1002.77	3347.04
1003.065	3337.78
1003.359	3335.29
1003.654	3279.25
1003.949	3282.41
1004.243	3269.76
1004.538	3248.97
1004.832	3230.21
1005.127	3158.8
1005.421	3142.76
1005.715	3169.87
1006.009	3155.19
1006.304	3101.18
1006.598	3112.47
1006.892	3082.64
1007.186	3077.22
1007.48	3015.98
1007.773	3028.86
1008.067	3026.83
1008.361	2999.94
1008.655	2991.35
1008.948	2994.74
1009.242	2971.24
1009.535	2936.21
1009.829	2928.52
1010.122	2874.29
1010.415	2896.66
1010.708	2844.01
1011.001	2858.02
1011.295	2849.66
1011.588	2777.34
1011.881	2766.27
1012.173	2803.1
1012.466	2738.7
1012.759	2735.99
1013.052	2738.7
1013.344	2685.59
1013.637	2696.21
1013.93	2696.89
1014.222	2646.5
1014.514	2627.74
1014.807	2591.13
1015.099	2559.27
1015.391	2588.65
1015.683	2582.09
1015.976	2528.54
1016.268	2530.57
1016.56	2516.11
1016.851	2512.49
1017.143	2477.46
1017.435	2481.08
1017.727	2449.44
1018.018	2445.6
1018.31	2396.56
1018.602	2406.05
1018.893	2364.25
1019.185	2364.92
1019.476	2367.41
1019.767	2338.03
1020.058	2342.78
1020.35	2296
1020.641	2287.41
1020.932	2267.53
1021.223	2255.1
1021.514	2244.7
1021.804	2191.59
1022.095	2218.03
1022.386	2216.68
1022.677	2185.72
1022.967	2161.09
1023.258	2148.66
1023.548	2110.24
1023.839	2133.74
1024.129	2092.16
1024.419	2062.78
1024.709	2062.11
1025	2040.41
1025.29	2027.76
1025.58	2005.61
1025.87	2032.05
1026.16	1983.92
1026.449	1968.1
1026.739	1969.45
1027.029	1981.2
1027.319	1956.57
1027.608	1937.59
1027.898	1910.47
1028.187	1906.18
1028.477	1917.93
1028.766	1859.63
1029.055	1872.28
1029.344	1849.23
1029.634	1816.46
1029.923	1848.78
1030.212	1811.49
1030.501	1742.57
1030.79	1766.07
1031.078	1754.09
1031.367	1753.19
1031.656	1741.89
1031.945	1725.84
1032.233	1729.23
1032.522	1710.03
1032.81	1688.78
1033.099	1693.53
1033.387	1674.77
1033.675	1639.75
1033.963	1633.42
1034.251	1639.29
1034.54	1643.36
1034.828	1602.68
1035.116	1582.35
1035.403	1563.59
1035.691	1592.97
1035.979	1543.93
1036.267	1543.25
1036.554	1555.23
1036.842	1524.95
1037.129	1493.08
1037.417	1493.99
1037.704	1494.21
1037.992	1474.78
1038.279	1479.3
1038.566	1453.31
1038.853	1453.31
1039.14	1453.31
