Data from 277_FLMS001491_009.txt Node
Date: Thu Apr 19 16:45:16 BST 2018
User: hsy
Spectrometer: FLMS00149
Trigger mode: 0
Integration Time (sec): 1.000000E-2
Scans to average: 10
Electric dark correction enabled: true
Nonlinearity correction enabled: false
Boxcar width: 0
XAxis mode: Wavelengths
Number of Pixels in Spectrum: 2048
>>>>>Begin Spectral Data<<<<<
341.393	-11.91
341.776	-11.91
342.16	-11.91
342.543	-65.69
342.927	-48.29
343.31	-64.56
343.693	-67.05
344.077	-64.56
344.46	-66.82
344.843	-40.61
345.226	-35.86
345.61	-51
345.993	-15.75
346.376	-11.23
346.759	-4.68
347.142	49.33
347.525	74.87
347.908	54.98
348.291	58.37
348.674	74.87
349.057	109.67
349.44	136.56
349.823	155.09
350.206	165.04
350.588	224.47
350.971	247.52
351.354	265.6
351.737	280.06
352.119	290.46
352.502	282.78
352.884	310.8
353.267	331.81
353.65	325.94
354.032	326.62
354.414	318.48
354.797	350.8
355.179	380.63
355.562	344.24
355.944	389.21
356.326	362.77
356.709	376.78
357.091	380.85
357.473	400.29
357.855	414.3
358.238	373.85
358.62	387.86
359.002	372.49
359.384	380.17
359.766	390.57
360.148	390.34
360.53	388.08
360.912	364.58
361.294	392.15
361.676	390.12
362.057	376.56
362.439	365.94
362.821	384.24
363.203	363.22
363.584	370.23
363.966	370.91
364.348	371.36
364.729	354.41
365.111	365.48
365.493	360.74
365.874	371.36
366.256	342.89
366.637	350.34
367.019	376.56
367.4	361.64
367.781	386.73
368.163	386.28
368.544	376.11
368.925	377.01
369.306	357.12
369.688	351.02
370.069	364.81
370.45	378.82
370.831	372.26
371.212	371.81
371.593	378.37
371.974	373.39
372.355	376.56
372.736	370.46
373.117	387.63
373.498	369.55
373.879	358.93
374.26	398.25
374.641	376.78
375.021	353.28
375.402	390.57
375.783	395.09
376.163	398.7
376.544	369.33
376.925	405.26
377.305	401.42
377.686	388.76
378.066	400.96
378.447	407.07
378.827	401.19
379.208	407.07
379.588	409.55
379.968	415.2
380.349	416.78
380.729	404.58
381.109	441.19
381.489	421.3
381.87	427.63
382.25	438.03
382.63	431.25
383.01	424.69
383.39	426.27
383.77	458.14
384.15	452.49
384.53	452.94
384.91	433.28
385.29	464.24
385.67	441.41
386.049	456.33
386.429	473.73
386.809	462.88
387.189	463.79
387.568	473.73
387.948	477.35
388.328	465.37
388.707	480.06
389.087	476.22
389.466	475.54
389.846	497.91
390.225	490.68
390.605	503.33
390.984	490.23
391.363	518.93
391.743	522.77
392.122	504.46
392.501	540.62
392.881	550.79
393.26	541.75
393.639	560.73
394.018	544.24
394.397	563.45
394.776	557.57
395.155	589.89
395.534	566.38
395.913	568.87
396.292	582.43
396.671	592.6
397.05	609.09
397.429	588.53
397.808	596.21
398.186	614.74
398.565	600.51
398.944	616.1
399.323	638.47
399.701	628.3
400.08	656.1
400.458	630.56
400.837	652.93
401.215	654.74
401.594	661.3
401.972	664.46
402.351	672.14
402.729	671.01
403.107	670.56
403.486	703.55
403.864	708.3
404.242	716.21
404.62	730.45
404.999	707.62
405.377	753.72
405.755	756.66
406.133	779.49
406.511	790.56
406.889	791.91
407.267	813.83
407.645	812.7
408.023	834.4
408.401	861.97
408.779	875.08
409.156	885.47
409.534	893.83
409.912	887.96
410.29	925.24
410.667	936.54
411.045	958.69
411.422	969.99
411.8	1007.05
412.178	1016.54
412.555	1048.4
412.933	1060.83
413.31	1060.38
413.687	1103.09
414.065	1126.14
414.442	1139.7
414.819	1143.09
415.197	1179.93
415.574	1148.74
415.951	1200.72
416.328	1205.69
416.705	1238.91
417.082	1242.75
417.46	1275.29
417.837	1296.76
418.214	1299.92
418.591	1315.52
418.967	1347.83
419.344	1352.35
419.721	1375.63
420.098	1395.97
420.475	1414.5
420.852	1404.78
421.228	1439.35
421.605	1475.06
421.982	1488.17
422.358	1513.25
422.735	1525
423.111	1540.37
423.488	1555.51
423.864	1578.56
424.241	1572.46
424.617	1624.66
424.994	1630.31
425.37	1643.64
425.746	1686.58
426.123	1662.17
426.499	1694.04
426.875	1738.56
427.251	1785.11
427.627	1803.64
428.003	1851.1
428.379	1849.06
428.756	1858.55
429.132	1905.56
429.507	1916.63
429.883	1987.59
430.259	1976.97
430.635	1966.57
431.011	2035.72
431.387	2075.04
431.763	2079.56
432.138	2142.84
432.514	2124.53
432.89	2165.21
433.265	2254.47
433.641	2240.92
434.016	2247.92
434.392	2328.6
434.767	2316.85
435.143	2359.56
435.518	2395.26
435.894	2447.46
436.269	2492.89
436.644	2517.97
437.02	2532.89
437.395	2571.3
437.77	2621.02
438.145	2641.36
438.52	2682.26
438.895	2705.54
439.271	2758.42
439.646	2792.54
440.021	2814.69
440.395	2811.97
440.77	2785.08
441.145	2865.98
441.52	2913.21
441.895	2931.07
442.27	2985.08
442.645	2957.96
443.019	2990.5
443.394	2978.75
443.769	3016.04
444.143	3036.15
444.518	3069.59
444.892	3052.65
445.267	3126.99
445.641	3144.85
446.016	3167.67
446.39	3181.23
446.764	3221.23
447.139	3239.08
447.513	3233.21
447.887	3291.06
448.262	3269.14
448.636	3286.76
449.01	3299.42
449.384	3390.72
449.758	3392.75
450.132	3445.63
450.506	3450.38
450.88	3537.83
451.254	3526.76
451.628	3600.65
452.002	3594.55
452.376	3668.9
452.75	3636.81
453.123	3702.8
453.497	3748.9
453.871	3811.04
454.244	3900.53
454.618	3932.4
454.992	3970.81
455.365	4008.33
455.739	4063.01
456.112	4118.38
456.486	4197.93
456.859	4185.72
457.232	4295.55
457.606	4331.93
457.979	4391.37
458.352	4456
458.725	4490.57
459.099	4569.67
459.472	4659.38
459.845	4681.53
460.218	4708.65
460.591	4790
460.964	4802.88
461.337	4897.12
461.71	5027.51
462.083	5045.36
462.456	5089.65
462.829	5099.82
463.201	5229.76
463.574	5263.21
463.947	5311.34
464.32	5425.46
464.692	5457.55
465.065	5541.17
465.438	5526.93
465.81	5655.52
466.183	5676.08
466.555	5819.35
466.928	5912.46
467.3	5838.11
467.672	5955.85
468.045	6034.26
468.417	6083.98
468.789	6150.64
469.161	6229.96
469.534	6310.19
469.906	6386.8
470.278	6500.69
470.65	6501.37
471.022	6678.99
471.394	6737.29
471.766	6845.77
472.138	6914.92
472.51	7059.09
472.882	7114.23
473.253	7201.69
473.625	7385.19
473.997	7454.11
474.369	7521.23
474.74	7624.95
475.112	7752.18
475.484	7849.81
475.855	8017.71
476.227	8124.15
476.598	8281.66
476.97	8330.02
477.341	8522.56
477.713	8671.03
478.084	8678.26
478.455	8987.18
478.827	9028.31
479.198	9274.85
479.569	9324.57
479.94	9544
480.311	9626.71
480.682	9863.09
481.053	10027.15
481.424	10227.6
481.795	10286.35
482.166	10487.7
482.537	10614.25
482.908	10787.58
483.279	10915.04
483.65	11161.13
484.021	11362.26
484.391	11400.22
484.762	11633.66
485.133	11655.58
485.503	11864.62
485.874	12087.89
486.244	12220.31
486.615	12445.17
486.985	12560.19
487.356	12817.13
487.726	12879.73
488.097	13234.75
488.467	13362.88
488.837	13558.58
489.207	13615.76
489.578	13863.66
489.948	14059.81
490.318	14244.89
490.688	14272.69
491.058	14514.72
491.428	14705.22
491.798	14800.81
492.168	15041.48
492.538	15144.08
492.908	15387.69
493.278	15594.91
493.648	15615.03
494.017	15748.13
494.387	15897.51
494.757	16000.55
495.126	16154.9
495.496	16321.9
495.866	16359.87
496.235	16538.39
496.605	16640.54
496.974	16679.18
497.344	16857.71
497.713	16985.61
498.082	17011.37
498.452	17198.04
498.821	17339.95
499.19	17347.41
499.559	17538.59
499.928	17581.98
500.298	17760.51
500.667	17924.8
501.036	17914.63
501.405	18039.82
501.774	18083.44
502.143	18147.39
502.512	18283.88
502.88	18444.11
503.249	18448.63
503.618	18623.08
503.987	18674.16
504.356	18829.86
504.724	18871.66
505.093	18849.74
505.462	18986.69
505.83	19123.64
506.199	19223.75
506.567	19312.78
506.936	19456.96
507.304	19688.14
507.672	19731.98
508.041	19713.45
508.409	19993.9
508.777	20156.83
509.145	20195.92
509.514	20212.19
509.882	20354.11
510.25	20446.31
510.618	20466.2
510.986	20549.36
511.354	20767.89
511.722	20963.14
512.09	21006.3
512.458	21100.08
512.826	21180.76
513.193	21336.91
513.561	21347.53
513.929	21437.25
514.297	21733.28
514.664	21848.08
515.032	21939.38
515.4	22141.86
515.767	22192.48
516.135	22237.68
516.502	22234.51
516.869	22559.25
517.237	22662.53
517.604	22555.64
517.972	22942.74
518.339	23049.18
518.706	23148.16
519.073	23269.74
519.44	23309.29
519.808	23586.34
520.175	23561.71
520.542	23903.85
520.909	23852.1
521.276	23987.69
521.643	24311.75
522.009	24328.47
522.376	24392.42
522.743	24540.89
523.11	24823.15
523.477	25160.76
523.843	25174.78
524.21	25493.86
524.577	25597.82
524.943	25718.72
525.31	25795.32
525.676	25986.73
526.043	26323.9
526.409	26291.81
526.776	26540.62
527.142	26672.82
527.508	26805.24
527.874	27009.53
528.241	27235.74
528.607	27318.67
528.973	27557.54
529.339	27479.12
529.705	27741.71
530.071	27938.09
530.437	28101.48
530.803	28074.59
531.169	28317.52
531.535	28320.46
531.901	28413.33
532.267	28495.82
532.632	28687.9
532.998	28704.85
533.364	28948.69
533.73	28920.89
534.095	29181.9
534.461	29058.29
534.826	29340.77
535.192	29400.2
535.557	29484.72
535.923	29511.16
536.288	29611.04
536.653	29733.3
537.019	29609.24
537.384	29772.4
537.749	29796.12
538.114	29950.24
538.479	29839.06
538.845	29777.82
539.21	29964.93
539.575	29922.9
539.94	30062.56
540.305	30213.06
540.67	30106.17
541.034	30081.77
541.399	30228.2
541.764	30209.9
542.129	30212.16
542.494	30237.47
542.858	30394.98
543.223	30342.1
543.587	30593.62
543.952	30335.77
544.316	30498.25
544.681	30341.65
545.045	30598.36
545.41	30578.93
545.774	30550.45
546.138	30620.73
546.503	30577.8
546.867	30567.4
547.231	30659.6
547.595	30591.81
547.959	30820.73
548.324	30723.1
548.688	30743.22
549.052	30776.66
549.416	30797.9
549.779	30835.87
550.143	30873.84
550.507	31007.62
550.871	30924
551.235	30866.6
551.599	31187.27
551.962	31144.79
552.326	31060.95
552.689	31033.38
553.053	30941.4
553.417	31084.9
553.78	31251.9
554.143	31366.03
554.507	31244.45
554.87	31307.27
555.234	31541.61
555.597	31350.43
555.96	31418.91
556.323	31465.91
556.686	31421.39
557.05	31701.84
557.413	31580.71
557.776	31518.56
558.139	31712.46
558.502	31726.92
558.865	31622.97
559.228	31902.73
559.59	31825.67
559.953	31959.91
560.316	32142.73
560.679	32056.63
561.041	32210.07
561.404	32224.08
561.767	32485.54
562.129	32254.14
562.492	32579.33
562.854	32642.83
563.217	32603.96
563.579	32744.52
563.941	32790.85
564.304	32929.37
564.666	33169.59
565.028	32971.63
565.39	33169.59
565.753	33217.5
566.115	33261.12
566.477	33424.73
566.839	33496.37
567.201	33758.51
567.563	33554.44
567.925	33755.57
568.287	33835.34
568.648	33899.52
569.01	34030.36
569.372	34281.43
569.734	34133.64
570.095	34464.25
570.457	34496.11
570.819	34443.68
571.18	34572.49
571.542	34726.84
571.903	34629.67
572.265	34942.65
572.626	35074.85
572.987	35012.71
573.349	35303.1
573.71	35299.26
574.071	35343.32
574.432	35494.73
574.794	35849.3
575.155	35749.19
575.516	35686.14
575.877	35861.73
576.238	35870.09
576.599	36086.35
576.96	36077.99
577.32	35965.45
577.681	36157.99
578.042	36309.85
578.403	36252
578.763	36410.19
579.124	36442.05
579.485	36680.69
579.845	36890.4
580.206	36722.04
580.566	36699.44
580.927	36766.11
581.287	36856.95
581.648	36831.19
582.008	37094.69
582.368	36990.51
582.728	37166.33
583.089	37259.43
583.449	37290.39
583.809	37122.71
584.169	37305.3
584.529	37298.07
584.889	37707.1
585.249	37255.36
585.609	37335.13
585.969	37498.52
586.329	37631.85
586.688	37697.84
587.048	37756.82
587.408	37674.56
587.768	37720.21
588.127	37853.09
588.487	37782.58
588.846	38064.83
589.206	37745.07
589.565	37996.36
589.925	38274.09
590.284	38062.8
590.643	38216.92
591.003	38245.39
591.362	38408.1
591.721	38356.58
592.08	38357.03
592.44	38572.39
592.799	38511.83
593.158	38550.47
593.517	38588.21
593.876	38742.1
594.235	38893.29
594.593	38697.36
594.952	38888.09
595.311	38798.15
595.67	39095.99
596.029	39108.42
596.387	39191.58
596.746	39278.59
597.104	39080.85
597.463	39102.09
597.822	39338.47
598.18	39330.79
598.538	39280.17
598.897	39605.81
599.255	39382.31
599.613	39838.8
599.972	39571.23
600.33	39748.63
600.688	39703.43
601.046	39951.34
601.404	39929.19
601.762	39980.49
602.12	40066.36
602.478	40214.15
602.836	40211.22
603.194	39982.3
603.552	40339.12
603.91	40268.39
604.268	40328.5
604.625	40222.97
604.983	40532.11
605.341	40316.98
605.698	40552.68
606.056	40844.87
606.413	40531.21
606.771	40801.71
607.128	40810.97
607.485	40750.41
607.843	40874.93
608.2	41093.68
608.557	41354.46
608.914	41106.56
609.272	41381.58
609.629	41494.8
609.986	41786.09
610.343	41572.76
610.7	41829.93
611.057	41846.88
611.414	41810.04
611.771	42113.77
612.127	42132.97
612.484	42007.33
612.841	42194.22
613.198	42161.22
613.554	42098.85
613.911	42507.2
614.267	42466.07
614.624	42566.86
614.98	42697.03
615.337	42857.02
615.693	42885.95
616.05	42798.95
616.406	43089.56
616.762	42873.97
617.118	42927.08
617.475	43002.33
617.831	43177.69
618.187	43211.82
618.543	43207.52
618.899	43450.23
619.255	43421.53
619.611	43431.47
619.967	43550.79
620.323	43775.64
620.678	43454.52
621.034	43470.57
621.39	43522.54
621.746	43609.77
622.101	43914.4
622.457	43629.66
622.812	43982.87
623.168	44040.27
623.523	44007.28
623.879	44249.75
624.234	43964.56
624.589	44014.73
624.945	44087.5
625.3	44141.96
625.655	44009.08
626.01	44169.53
626.365	44282.52
626.72	44127.5
627.075	44095.41
627.43	44254.73
627.785	44032.81
628.14	44078.01
628.495	44122.98
628.85	44144.9
629.205	44125.24
629.559	44198.23
629.914	44160.04
630.269	44069.65
630.623	43925.7
630.978	43912.14
631.332	44121.4
631.687	44080.27
632.041	43897.22
632.396	43913.04
632.75	43902.87
633.104	43942.87
633.459	43734.51
633.813	43716.89
634.167	43793.5
634.521	43735.19
634.875	43880.72
635.229	43685.7
635.583	43440.28
635.937	43553.28
636.291	43645.02
636.645	43549.89
636.999	43283.9
637.352	43471.02
637.706	43316.45
638.06	43396.67
638.413	43294.98
638.767	43193.06
639.121	43196.22
639.474	43128.2
639.828	43143.57
640.181	42993.52
640.534	43123
640.888	42914.42
641.241	42744.48
641.594	42878.04
641.947	42982.44
642.301	42867.64
642.654	42977.47
643.007	42834.65
643.36	42911.48
643.713	42893.41
644.066	42989
644.419	42694.99
644.771	42282.12
645.124	42063.82
645.477	42056.82
645.83	41801.46
646.182	41870.16
646.535	41653.89
646.888	41805.98
647.24	41648.92
647.593	41880.55
647.945	41659.99
648.298	41570.95
648.65	41551.29
649.002	41429.72
649.355	41238.53
649.707	41191.76
650.059	41289.38
650.411	41934.56
650.763	42011.85
651.115	42615.67
651.467	42351.73
651.819	42480.31
652.171	42348.56
652.523	42472.17
652.875	42392.85
653.227	42212.07
653.578	42543.58
653.93	42439.63
654.282	42173.42
654.633	42206.19
654.985	42267.89
655.337	42417.03
655.688	42335.91
656.039	42549.46
656.391	42271.95
656.742	42359.18
657.094	42438.28
657.445	42542.68
657.796	42502
658.147	42404.15
658.498	42450.48
658.849	42582.45
659.2	42392.4
659.551	42354.66
659.902	42628.33
660.253	42458.16
660.604	42529.57
660.955	42417.71
661.306	42659.97
661.656	42559.86
662.007	42514.21
662.358	42636.24
662.708	42611.15
663.059	42594.43
663.409	42368.45
663.76	42788.78
664.11	42791.04
664.461	42930.02
664.811	42777.02
665.161	42709.68
665.511	42579.06
665.862	42754.65
666.212	42784.71
666.562	42831.26
666.912	42798.72
667.262	42630.59
667.612	42703.13
667.962	42826.52
668.312	42786.06
668.662	42871.49
669.011	42916.46
669.361	42846.18
669.711	42848.21
670.06	42774.54
670.41	42655.67
670.76	42626.75
671.109	42807.53
671.459	42766.18
671.808	42805.5
672.157	42803.46
672.507	42592.62
672.856	42501.78
673.205	42496.13
673.554	42671.94
673.904	42524.38
674.253	42775.22
674.602	42524.15
674.951	42021.34
675.3	41708.8
675.649	42356.47
675.998	42431.27
676.346	42464.94
676.695	42598.5
677.044	42200.32
677.393	42274.67
677.741	42319.64
678.09	42303.59
678.438	42207.1
678.787	42138.85
679.135	42186.53
679.484	41869.25
679.832	41998.74
680.181	41885.3
680.529	41944.96
680.877	41818.86
681.225	41858.41
681.573	42062.47
681.922	41729.14
682.27	41604.63
682.618	41649.37
682.966	41444.86
683.314	41627.22
683.661	41451.86
684.009	41259.32
684.357	41273.11
684.705	41109.27
685.053	41139.1
685.4	40906.34
685.748	40793.57
686.095	40690.07
686.443	40532.56
686.79	40504.99
687.138	40608.72
687.485	40354.94
687.832	40339.35
688.18	40348.84
688.527	39970.77
688.874	40060.94
689.221	39954.5
689.568	39806.48
689.915	39705.69
690.262	39672.93
690.609	39595.19
690.956	39308.64
691.303	39315.42
691.65	39199.49
691.997	38995.66
692.344	38934.87
692.69	38831.82
693.037	38974.87
693.383	38454.65
693.73	38489
694.077	38238.39
694.423	38353.86
694.769	38140.31
695.116	38100.09
695.462	37917.72
695.808	37731.73
696.155	37750.72
696.501	37562.25
696.847	37572.42
697.193	37254.68
697.539	37124.29
697.885	36924.52
698.231	36796.84
698.577	36828.93
698.923	36643.85
699.269	36332.22
699.614	36213.81
699.96	35994.83
700.306	36132.45
700.651	35980.37
700.997	35859.47
701.342	35822.86
701.688	35736.98
702.033	35391.46
702.379	35433.72
702.724	35286.6
703.069	35249.99
703.415	34758.7
703.76	34702.21
704.105	34770.23
704.45	34602.1
704.795	34523
705.14	34384.03
705.485	34411.82
705.83	34097.48
706.175	34310.58
706.52	34085.73
706.865	33878.28
707.209	33870.59
707.554	33661.78
707.899	33787.43
708.243	33674.67
708.588	33437.84
708.932	33292.53
709.277	33291.4
709.621	33102.48
709.966	32947.23
710.31	32981.35
710.654	32750.17
710.998	32782.94
711.342	32878.08
711.687	32728.7
712.031	32713.79
712.375	32535.26
712.719	32523.51
713.063	32370.97
713.407	32606.67
713.75	32452.1
714.094	32250.07
714.438	32209.62
714.782	32299.79
715.125	32257.98
715.469	32133.69
715.812	31989.29
716.156	31954.03
716.499	31907.25
716.843	31974.15
717.186	31889.18
717.53	32004.88
717.873	31916.75
718.216	31883.07
718.559	31687.82
718.902	31625.45
719.246	31598.79
719.589	31585.91
719.932	31485.8
720.275	31627.94
720.617	31603.76
720.96	31500.94
721.303	31566.02
721.646	31738.9
721.989	31323.99
722.331	31474.72
722.674	31332.13
723.016	31463.42
723.359	31328.74
723.701	31382.3
724.044	31289.87
724.386	31139.14
724.729	31516.08
725.071	31394.27
725.413	31345.01
725.755	31292.81
726.097	31300.04
726.439	31180.72
726.782	31403.76
727.124	31427.49
727.465	31321.05
727.807	31295.97
728.149	31264.33
728.491	31255.29
728.833	31269.98
729.175	31298.91
729.516	31299.59
729.858	31217.55
730.199	31423.2
730.541	31283.77
730.882	31383.43
731.224	31414.16
731.565	31420.94
731.906	31473.59
732.248	31484.67
732.589	31390.66
732.93	31245.8
733.271	31403.76
733.612	31445.57
733.953	31695.51
734.294	31533.25
734.635	31518.11
734.976	31638.11
735.317	31484.44
735.658	31611.67
735.999	31642.63
736.339	31633.14
736.68	31719.46
737.021	31662.29
737.361	31751.78
737.702	31989.96
738.042	31853.47
738.383	31968.72
738.723	32059.57
739.063	31973.92
739.404	32156.97
739.744	32162.16
740.084	32149.96
740.424	32527.35
740.764	32365.1
741.104	32502.27
741.444	32384.53
741.784	32391.99
742.124	32608.03
742.464	32694.58
742.804	32625.43
743.143	32666.56
743.483	32972.54
743.823	32765.99
744.162	33015.25
744.502	33100.67
744.841	33144.06
745.181	33419.3
745.52	33368.46
745.86	33447.1
746.199	33475.12
746.538	33675.12
746.877	33905.62
747.216	33960.99
747.556	33958.95
747.895	34296.57
748.234	34208.66
748.573	34438.94
748.911	34519.61
749.25	34568.65
749.589	34503.34
749.928	34702.66
750.267	34941.98
750.605	35084.8
750.944	35154.17
751.283	35259.03
751.621	35361.85
751.96	35549.42
752.298	35648.4
752.636	35848.85
752.975	35850.88
753.313	35972.46
753.651	36420.36
753.989	36263.98
754.327	36321.83
754.666	36377.65
755.004	36632.55
755.342	36864.86
755.679	37018.98
756.017	36887.46
756.355	37255.14
756.693	37270.96
757.031	37585.07
757.368	37381.91
757.706	37643.6
758.044	37636.6
758.381	37854.22
758.719	37832.3
759.056	38122.23
759.394	38049.69
759.731	37940.32
760.068	38055.12
760.405	38152.97
760.743	38216.69
761.08	38340.31
761.417	38455.33
761.754	38516.35
762.091	38489.45
762.428	38434.77
762.765	38603.35
763.102	38712.05
763.438	38728.77
763.775	38571.26
764.112	38790.92
764.449	38785.94
764.785	38752.05
765.122	38573.07
765.458	38608.55
765.795	38670.01
766.131	38744.81
766.467	38749.79
766.804	38560.41
767.14	38584.59
767.476	38580.75
767.812	38669.34
768.148	38747.98
768.485	38620.75
768.821	38439.96
769.157	38374.43
769.492	38312.06
769.828	38417.59
770.164	38219.18
770.5	38118.39
770.836	38170.82
771.171	38157.94
771.507	38070.48
771.842	37927.66
772.178	37928.34
772.513	37865.52
772.849	37831.84
773.184	37837.72
773.519	37771.96
773.855	37601.79
774.19	37603.6
774.525	37458.07
774.86	37297.4
775.195	37274.8
775.53	37244.29
775.865	37074.8
776.2	36932.88
776.535	36651.76
776.87	36524.08
777.205	36517.98
777.539	36594.81
777.874	36541.93
778.209	36287.7
778.543	36230.98
778.878	36123.19
779.212	36132.68
779.547	35926.13
779.881	36012.68
780.215	35663.09
780.55	35730.66
780.884	35508.52
781.218	35481.4
781.552	35551
781.886	35294.51
782.22	35099.26
782.554	34976.33
782.888	34697.69
783.222	34737.69
783.556	34583.12
783.889	34407.08
784.223	34264.03
784.557	34355.1
784.89	34397.13
785.224	34077.37
785.557	33959.4
785.891	33975
786.224	33896.13
786.558	33814.1
786.891	33600.09
787.224	33428.8
787.557	33225.19
787.891	33430.6
788.224	33121.46
788.557	33087.34
788.89	33096.15
789.223	32957.85
789.556	32879.66
789.888	32650.51
790.221	32564.64
790.554	32470.86
790.887	32403.06
791.219	32286.91
791.552	32138.66
791.884	32063.41
792.217	31905.9
792.549	31860.25
792.882	31570.77
793.214	31629.3
793.546	31633.36
793.879	31439.7
794.211	31118.8
794.543	31389.3
794.875	31224.33
795.207	31143.43
795.539	31131.68
795.871	31079.71
796.203	30900.28
796.535	30661.64
796.867	30658.25
797.198	30518.82
797.53	30462.32
797.862	30270.46
798.193	30373.96
798.525	30221.2
798.856	30270.24
799.188	29831.15
799.519	29844.03
799.85	29776.24
800.182	29733.3
800.513	29678.61
800.844	29359.52
801.175	29605.85
801.506	29462.8
801.837	29313.88
802.168	29274.78
802.499	29227.32
802.83	29024.17
803.161	28955.92
803.491	29014.22
803.822	28982.59
804.153	28812.87
804.483	28507.12
804.814	28362.49
805.145	28570.84
805.475	28472.54
805.805	28353.22
806.136	28393
806.466	28211.08
806.796	28136.73
807.126	28018.54
807.457	28011.54
807.787	28022.61
808.117	27972.89
808.447	27781.71
808.777	27922.5
809.107	27632.11
809.436	27453.36
809.766	27547.59
810.096	27525
810.426	27375.17
810.755	27400.48
811.085	27336.98
811.414	27318.67
811.744	27221.73
812.073	27186.02
812.403	27055.18
812.732	26934.96
813.061	27005.01
813.39	26826.48
813.719	26758.69
814.049	26967.27
814.378	26868.97
814.707	26615.87
815.036	26719.82
815.365	26546.94
815.693	26317.12
816.022	26483.89
816.351	26324.58
816.68	26109.21
817.008	26267.4
817.337	26002.32
817.665	26084.13
817.994	26096.56
818.322	26005.04
818.651	25974.75
818.979	25849.33
819.307	25886.62
819.636	25839.17
819.964	25693.41
820.292	25807.3
820.62	25667.87
820.948	25734.31
821.276	25802.78
821.604	25751.48
821.932	25958.94
822.259	25708.32
822.587	25633.29
822.915	25638.94
823.243	25777.7
823.57	25709.9
823.898	25792.16
824.225	25605.5
824.553	25688.21
824.88	25676.68
825.207	25807.98
825.535	25561.21
825.862	25766.85
826.189	25811.14
826.516	25873.06
826.843	25814.31
827.17	25839.17
827.497	25805.49
827.824	25812.95
828.151	25787.42
828.478	25804.36
828.805	25995.55
829.131	25805.27
829.458	25821.99
829.785	25595.33
830.111	25814.31
830.438	25805.04
830.764	25775.66
831.09	25859.5
831.417	25588.32
831.743	25778.15
832.069	25706.51
832.395	25564.82
832.722	25807.53
833.048	25595.78
833.374	25709.9
833.7	25577.03
834.026	25682.33
834.351	25683.24
834.677	25789.22
835.003	25709.9
835.329	25658.6
835.654	25515.33
835.98	25497.03
836.306	25462.9
836.631	25366.86
836.956	25630.58
837.282	25452.73
837.607	25430.36
837.932	25281.89
838.258	25330.7
838.583	25302
838.908	25173.19
839.233	25321.89
839.558	25055.46
839.883	25222.68
840.208	25003.93
840.533	25018.85
840.858	24949.25
841.182	25045.29
841.507	25063.59
841.832	24808.91
842.156	24839.87
842.481	24883.03
842.805	24745.86
843.13	24736.82
843.454	24721.91
843.778	24575.24
844.103	24654.79
844.427	24497.05
844.751	24595.58
845.075	24506.54
845.399	24375.25
845.723	24404.17
846.047	24379.54
846.371	24085.31
846.695	23954.24
847.019	23900.46
847.343	23815.94
847.666	23767.36
847.99	23648.04
848.313	23638.77
848.637	23559.9
848.96	23395.16
849.284	23357.65
849.607	23189.52
849.931	23127.6
850.254	23028.84
850.577	22889.86
850.9	22812.13
851.223	22825.69
851.546	22753.82
851.869	22573.26
852.192	22679.93
852.515	22410.78
852.838	22261.63
853.161	22334.17
853.483	22134.18
853.806	22095.31
854.129	22041.75
854.451	22061.19
854.774	21856.67
855.096	21785.26
855.419	21780.06
855.741	21700.97
856.063	21634.76
856.385	21497.13
856.708	21518.6
857.03	21373.75
857.352	21417.81
857.674	21401.32
857.996	21239.51
858.318	21107.31
858.64	21150.93
858.961	21015.11
859.283	20992.06
859.605	21016.24
859.926	20963.59
860.248	20911.39
860.57	20724.72
860.891	20793.87
861.212	20740.54
861.534	20548.68
861.855	20501
862.176	20589.36
862.498	20585.07
862.819	20545.52
863.14	20440.89
863.461	20368.57
863.782	20271.18
864.103	20306.43
864.424	20176.26
864.745	20168.58
865.065	20097.4
865.386	20004.74
865.707	20138.52
866.027	20068.24
866.348	20019.21
866.668	19995.7
866.989	19953.67
867.309	19765.43
867.63	19704.64
867.95	19865.31
868.27	19653.11
868.59	19786.67
868.91	19784.18
869.23	19693.56
869.55	19571.99
869.87	19725.65
870.19	19519.56
870.51	19607.92
870.83	19580.35
871.15	19508.26
871.469	19421.03
871.789	19528.37
872.109	19398.43
872.428	19303.07
872.748	19393.91
873.067	19389.39
873.386	19389.62
873.706	19216.97
874.025	19235.72
874.344	19159.34
874.663	19094.48
874.982	19142.62
875.301	19123.64
875.62	19015.62
875.939	19018.78
876.258	18969.97
876.577	19038.44
876.896	18961.38
877.214	18961.61
877.533	18907.6
877.852	18916.64
878.17	18848.61
878.489	18924.32
878.807	18760.93
879.125	18752.8
879.444	18514.61
879.762	18493.14
880.08	18658.79
880.398	18659.47
880.716	18548.74
881.034	18414.73
881.352	18476.42
881.67	18342.41
881.988	18524.1
882.306	18393.94
882.624	18372.02
882.941	18338.35
883.259	18259.7
883.577	18258.57
883.894	18128.18
884.212	18207.5
884.529	18080.95
884.846	18059.03
885.164	17913.5
885.481	17891.8
885.798	17939.94
886.115	17899.94
886.432	17813.39
886.75	17831.92
887.067	17808.64
887.383	17717.57
887.7	17691.58
888.017	17593.96
888.334	17560.96
888.651	17528.65
888.967	17588.08
889.284	17416.11
889.6	17316.68
889.917	17313.74
890.233	17371.59
890.55	17367.98
890.866	17280.75
891.182	17239.84
891.498	17141.99
891.815	17047.08
892.131	16952.85
892.447	16949.68
892.763	16857.48
893.079	16766.86
893.395	16809.57
893.71	16813.87
894.026	16634.89
894.342	16677.82
894.657	16565.96
894.973	16492.97
895.289	16496.81
895.604	16439.86
895.92	16378.62
896.235	16251.85
896.55	16305.4
896.865	16256.59
897.181	16129.82
897.496	16110.83
897.811	15949.71
898.126	16057.05
898.441	15910.84
898.756	15906.32
899.071	15756.72
899.386	15826.1
899.7	15731.63
900.015	15610.51
900.33	15458.87
900.644	15526.89
900.959	15551.07
901.273	15454.58
901.588	15402.15
901.902	15359.89
902.216	15196.96
902.531	15245.09
902.845	15141.14
903.159	15050.75
903.473	15029.28
903.787	14985.21
904.101	14855.05
904.415	14943.41
904.729	14932.33
905.042	14768.27
905.356	14665.45
905.67	14601.49
905.984	14684.88
906.297	14571.44
906.611	14476.98
906.924	14465.23
907.237	14450.31
907.551	14378.68
907.864	14229.75
908.177	14347.26
908.491	14186.14
908.804	14092.58
909.117	14025.24
909.43	13945.01
909.743	13838.12
910.056	13926.48
910.368	13819.37
910.681	13702.99
910.994	13647.85
911.307	13665.93
911.619	13524.46
911.932	13509.09
912.244	13376.67
912.557	13436.78
912.869	13390.9
913.181	13318.82
913.494	13250.34
913.806	13240.63
914.118	13082.44
914.43	13064.13
914.742	13025.94
915.054	13030.46
915.366	12920.18
915.678	12861.65
915.99	12806.97
916.302	12740.98
916.613	12734.43
916.925	12668.66
917.236	12668.44
917.548	12602.45
917.859	12505.5
918.171	12439.07
918.482	12470.48
918.794	12381.44
919.105	12309.13
919.416	12265.28
919.727	12255.57
920.038	12220.54
920.349	12016.93
920.66	12029.13
920.971	12037.49
921.282	11970.15
921.593	11876.59
921.903	11805.64
922.214	11857.39
922.525	11771.51
922.835	11766.54
923.146	11564.96
923.456	11629.14
923.767	11569.26
924.077	11508.47
924.387	11531.29
924.697	11430.05
925.008	11360.68
925.318	11341.02
925.628	11314.12
925.938	11269.83
926.248	11125.88
926.558	11117.97
926.867	11024.19
927.177	11031.64
927.487	10988.03
927.796	10968.14
928.106	10941.7
928.416	10815.15
928.725	10807.7
929.034	10771.76
929.344	10737.42
929.653	10722.5
929.962	10548.72
930.271	10556.4
930.581	10534.03
930.89	10490.87
931.199	10430.98
931.508	10370.19
931.817	10364.77
932.125	10368.39
932.434	10205.9
932.743	10114.83
933.051	10158.67
933.36	10093.14
933.669	10042.74
933.977	9993.48
934.286	9969.53
934.594	9943.09
934.902	9936.31
935.21	9831.68
935.519	9807.04
935.827	9798.91
936.135	9698.12
936.443	9681.62
936.751	9612.47
937.059	9620.16
937.367	9571.57
937.674	9578.35
937.982	9503.1
938.29	9527.5
938.597	9423.78
938.905	9336.32
939.213	9226.95
939.52	9288.64
939.827	9304.01
940.135	9211.13
940.442	9164.12
940.749	9106.27
941.056	9110.79
941.363	9010.91
941.67	9054.3
941.977	8958.71
942.284	8886.84
942.591	8916.67
942.898	8930.01
943.205	8861.31
943.511	8781.31
943.818	8751.03
944.125	8699.05
944.431	8704.02
944.738	8598.49
945.044	8557.59
945.35	8574.53
945.657	8543.35
945.963	8509.45
946.269	8361.21
946.575	8388.1
946.881	8399.62
947.187	8309.46
947.493	8288.21
947.799	8259.97
948.105	8191.72
948.41	8152.85
948.716	8163.02
949.022	8100.2
949.327	8050.03
949.633	7972.29
949.938	7992.18
950.244	8040.54
950.549	7905.63
950.854	7857.72
951.16	7857.27
951.465	7779.3
951.77	7751.05
952.075	7765.29
952.38	7665.18
952.685	7726.87
952.99	7627.21
953.294	7622.47
953.599	7502.92
953.904	7455.69
954.209	7410.27
954.513	7507.44
954.818	7510.83
955.122	7388.8
955.426	7402.81
955.731	7300.67
956.035	7263.61
956.339	7229.03
956.643	7191.52
956.948	7171.18
957.252	7095.03
957.556	7118.98
957.86	7065.2
958.163	7045.31
958.467	7013.9
958.771	7032.2
959.075	6964.41
959.378	6927.8
959.682	6924.63
959.985	6847.8
960.289	6761.93
960.592	6835.15
960.896	6805.77
961.199	6743.62
961.502	6754.92
961.805	6690.06
962.108	6651.65
962.411	6579.56
962.714	6619.78
963.017	6599.67
963.32	6558.99
963.623	6550.86
963.926	6480.8
964.228	6500.69
964.531	6489.39
964.833	6453.91
965.136	6397.64
965.438	6298.89
965.741	6286.23
966.043	6244.88
966.345	6242.84
966.648	6247.82
966.95	6241.49
967.252	6114.49
967.554	6200.36
967.856	6122.85
968.158	6047.37
968.46	6006.47
968.761	6001.72
969.063	5992
969.365	5978.22
969.666	5911.55
969.968	5851.22
970.269	5910.42
970.571	5839.69
970.872	5823.87
971.174	5747.94
971.475	5775.74
971.776	5774.61
972.077	5721.5
972.378	5744.33
972.679	5697.32
972.98	5661.16
973.281	5687.38
973.582	5613.48
973.883	5573.03
974.183	5550.43
974.484	5528.51
974.785	5490.1
975.085	5470.89
975.386	5479.02
975.686	5391.12
975.986	5350.89
976.287	5373.49
976.587	5317.9
976.887	5326.71
977.187	5316.32
977.487	5314.73
977.787	5290.33
978.087	5261.85
978.387	5216.43
978.687	5161.52
978.987	5150.67
979.286	5107.05
979.586	5161.52
979.885	5097.56
980.185	5044.46
980.484	5071.8
980.784	5018.47
981.083	4951.58
981.382	4951.35
981.682	5029.77
981.981	4985.25
982.28	4932.6
982.579	4850.56
982.878	4886.27
983.177	4836.33
983.475	4812.6
983.774	4751.13
984.073	4776.22
984.372	4748.42
984.67	4755.2
984.969	4764.24
985.267	4676.33
985.566	4638.82
985.864	4612.15
986.162	4635.65
986.461	4546.84
986.759	4567.18
987.057	4516.56
987.355	4525.38
987.653	4478.6
987.951	4461.87
988.249	4498.71
988.547	4420.75
988.844	4384.14
989.142	4375.1
989.44	4364.02
989.737	4336
990.035	4340.07
990.332	4279.51
990.63	4293.07
990.927	4272.27
991.224	4284.93
991.521	4241.77
991.819	4191.6
992.116	4183.46
992.413	4205.61
992.71	4151.6
993.006	4130.58
993.303	4118.38
993.6	4089.91
993.897	4109.34
994.193	4063.47
994.49	4002.9
994.787	3988.44
995.083	4000.64
995.379	3945.96
995.676	3991.83
995.972	3940.31
996.268	3933.07
996.565	3904.15
996.861	3840.2
997.157	3841.55
997.453	3848.33
997.749	3796.81
998.044	3772.17
998.34	3750.93
998.636	3734.66
998.932	3727.66
999.227	3674.1
999.523	3688.34
999.818	3662.12
1000.114	3672.29
1000.409	3594.33
1000.704	3613.08
1001	3571.95
1001.295	3544.84
1001.59	3521.56
1001.885	3527.89
1002.18	3502.8
1002.475	3436.36
1002.77	3467.55
1003.065	3422.13
1003.359	3460.32
1003.654	3402.47
1003.949	3377.61
1004.243	3393.2
1004.538	3335.58
1004.832	3312.53
1005.127	3275.46
1005.421	3287.67
1005.715	3240.44
1006.009	3235.69
1006.304	3217.39
1006.598	3221.45
1006.892	3196.6
1007.186	3155.69
1007.48	3167.22
1007.773	3132.64
1008.067	3120.44
1008.361	3101.46
1008.655	3065.07
1008.948	3036.83
1009.242	3076.15
1009.535	3018.75
1009.829	3005.42
1010.122	2986.88
1010.415	2975.81
1010.708	2941.01
1011.001	2961.12
1011.295	2915.47
1011.588	2870.5
1011.881	2871.18
1012.173	2881.8
1012.466	2809.71
1012.759	2804.06
1013.052	2819.21
1013.344	2780.56
1013.637	2771.98
1013.93	2737.4
1014.222	2744.41
1014.514	2715.25
1014.807	2706.89
1015.099	2678.42
1015.391	2659.66
1015.683	2643.39
1015.976	2631.41
1016.268	2587.57
1016.56	2576.27
1016.851	2588.25
1017.143	2536.95
1017.435	2544.86
1017.727	2498.54
1018.018	2489.72
1018.31	2493.79
1018.602	2467.8
1018.893	2452.44
1019.185	2462.38
1019.476	2409.95
1019.767	2389.16
1020.058	2393.45
1020.35	2378.99
1020.641	2346.45
1020.932	2313.23
1021.223	2309.61
1021.514	2299.45
1021.804	2280.91
1022.095	2274.81
1022.386	2267.81
1022.677	2234.14
1022.967	2226.9
1023.258	2186.68
1023.548	2223.06
1023.839	2213.35
1024.129	2160.92
1024.419	2130.18
1024.709	2125.44
1025	2113.24
1025.29	2092.22
1025.58	2096.29
1025.87	2070.3
1026.16	2024.65
1026.449	2051.09
1026.739	1981.94
1027.029	1991.43
1027.319	2019.45
1027.608	1988.72
1027.898	1946.91
1028.187	1931.32
1028.477	1947.82
1028.766	1920.25
1029.055	1922.28
1029.344	1888.61
1029.634	1870.76
1029.923	1835.5
1030.212	1862.85
1030.501	1851.1
1030.79	1803.86
1031.078	1802.51
1031.367	1778.1
1031.656	1807.25
1031.945	1757.31
1032.233	1761.15
1032.522	1750.99
1032.81	1728.16
1033.099	1713.02
1033.387	1702.62
1033.675	1691.1
1033.963	1696.52
1034.251	1684.55
1034.54	1634.15
1034.828	1655.62
1035.116	1630.99
1035.403	1637.32
1035.691	1609.29
1035.979	1605.45
1036.267	1554.61
1036.554	1566.81
1036.842	1580.14
1037.129	1579.01
1037.417	1547.15
1037.704	1559.35
1037.992	1548.96
1038.279	1544.66
1038.566	1507.38
1038.853	1507.38
1039.14	1507.38
