Data from 277_FLMS001491_003.txt Node
Date: Thu Apr 19 16:45:01 BST 2018
User: hsy
Spectrometer: FLMS00149
Trigger mode: 0
Integration Time (sec): 1.000000E-2
Scans to average: 10
Electric dark correction enabled: true
Nonlinearity correction enabled: false
Boxcar width: 0
XAxis mode: Wavelengths
Number of Pixels in Spectrum: 2048
>>>>>Begin Spectral Data<<<<<
341.393	-0.96
341.776	-0.96
342.16	-0.96
342.543	-51.81
342.927	-70.11
343.31	-56.55
343.693	-76.21
344.077	-67.63
344.46	-74.86
344.843	-58.36
345.226	-38.02
345.61	-25.37
345.993	-22.65
346.376	-16.78
346.759	11.92
347.142	27.06
347.525	57.34
347.908	39.94
348.291	89.88
348.674	107.74
349.057	102.54
349.44	124.91
349.823	153.84
350.206	169.43
350.588	201.29
350.971	241.75
351.354	258.02
351.737	261.86
352.119	284
352.502	307.73
352.884	324
353.267	317.22
353.65	351.12
354.032	348.41
354.414	330.56
354.797	351.8
355.179	344.79
355.562	369.88
355.944	366.71
356.326	382.08
356.709	363.55
357.091	384.11
357.473	378.69
357.855	366.04
358.238	385.7
358.62	387.96
359.002	364.91
359.384	386.37
359.766	382.53
360.148	383.89
360.53	386.37
360.912	380.27
361.294	375.98
361.676	372.36
362.057	393.83
362.439	399.26
362.821	369.2
363.203	358.35
363.584	376.2
363.966	355.41
364.348	382.53
364.729	380.5
365.111	364.45
365.493	365.58
365.874	364.23
366.256	365.58
366.637	354.28
367.019	370.1
367.4	377.33
367.781	360.16
368.163	360.39
368.544	367.62
368.925	379.37
369.306	370.33
369.688	371.46
370.069	372.59
370.45	371.23
370.831	373.27
371.212	358.58
371.593	394.96
371.974	391.12
372.355	380.5
372.736	367.84
373.117	375.53
373.498	367.62
373.879	353.83
374.26	384.79
374.641	385.47
375.021	380.72
375.402	395.19
375.783	385.24
376.163	410.1
376.544	400.38
376.925	402.64
377.305	401.74
377.686	405.13
378.066	406.71
378.447	406.49
378.827	411.91
379.208	426.37
379.588	403.32
379.968	423.44
380.349	432.93
380.729	413.04
381.109	404.68
381.489	418.92
381.87	425.24
382.25	414.62
382.63	434.28
383.01	450.1
383.39	442.87
383.77	428.63
384.15	457.78
384.53	431.34
384.91	441.06
385.29	456.43
385.67	466.37
386.049	466.37
386.429	461.17
386.809	454.17
387.189	480.61
387.568	465.92
387.948	487.84
388.328	486.26
388.707	495.75
389.087	479.03
389.466	496.65
389.846	494.62
390.225	495.07
390.605	504.11
390.984	516.77
391.363	520.38
391.743	506.14
392.122	525.13
392.501	529.42
392.881	544.56
393.26	555.41
393.639	510.89
394.018	558.57
394.397	565.58
394.776	562.64
395.155	579.59
395.534	543.21
395.913	582.08
396.292	591.11
396.671	573.04
397.05	589.08
397.429	568.97
397.808	598.12
398.186	604.22
398.565	639.02
398.944	621.85
399.323	613.03
399.701	618.01
400.08	624.11
400.458	645.35
400.837	654.16
401.215	651.9
401.594	659.14
401.972	642.41
402.351	683.54
402.729	658.46
403.107	676.54
403.486	704.56
403.864	714.05
404.242	710.21
404.62	738
404.999	755.86
405.377	762.86
405.755	759.02
406.133	783.2
406.511	764.67
406.889	781.17
407.267	806.7
407.645	819.36
408.023	816.65
408.401	852.12
408.779	865.01
409.156	877.89
409.534	892.58
409.912	890.77
410.29	917.66
410.667	924.89
411.045	952.23
411.422	968.96
411.8	987.49
412.178	1019.35
412.555	1039.46
412.933	1047.83
413.31	1057.54
413.687	1083.76
414.065	1140.7
414.442	1095.06
414.819	1140.48
415.197	1144.09
415.574	1186.13
415.951	1177.54
416.328	1188.61
416.705	1205.79
417.082	1240.81
417.46	1257.31
417.837	1298.44
418.214	1311.77
418.591	1298.21
418.967	1340.02
419.344	1337.54
419.721	1334.15
420.098	1358.55
420.475	1368.04
420.852	1401.71
421.228	1412.34
421.605	1423.18
421.982	1487.59
422.358	1462.96
422.735	1488.49
423.111	1509.96
423.488	1529.39
423.864	1558.32
424.241	1535.5
424.617	1569.62
424.994	1599
425.37	1629.96
425.746	1629.96
426.123	1662.95
426.499	1688.26
426.875	1703.4
427.251	1739.78
427.627	1741.14
428.003	1790.18
428.379	1807.13
428.756	1836.73
429.132	1853
429.507	1882.61
429.883	1909.27
430.259	1952.21
430.635	1959.89
431.011	2018.87
431.387	2022.94
431.763	2042.15
432.138	2081.24
432.514	2130.06
432.89	2143.39
433.265	2207.57
433.641	2197.63
434.016	2250.73
434.392	2288.7
434.767	2351.75
435.143	2359.2
435.518	2371.63
435.894	2428.13
436.269	2468.81
436.644	2497.73
437.02	2507
437.395	2539.31
437.77	2582.25
438.145	2601.01
438.52	2662.47
438.895	2681.23
439.271	2660.66
439.646	2729.36
440.021	2736.82
440.395	2787.44
440.77	2746.76
441.145	2829.47
441.52	2847.33
441.895	2865.86
442.27	2908.79
442.645	2916.48
443.019	2958.28
443.394	2943.37
443.769	2958.96
444.143	2997.15
444.518	3043.48
444.892	3042.35
445.267	3066.98
445.641	3060.88
446.016	3099.75
446.39	3139.97
446.764	3171.39
447.139	3181.55
447.513	3215
447.887	3269.69
448.262	3227.2
448.636	3274.89
449.01	3332.29
449.384	3360.99
449.758	3349.46
450.132	3439.85
450.506	3459.74
450.88	3470.81
451.254	3493.18
451.628	3552.84
452.002	3550.36
452.376	3619.96
452.75	3650.02
453.123	3672.62
453.497	3693.41
453.871	3753.52
454.244	3850.01
454.618	3871.93
454.992	3937.02
455.365	3975.21
455.739	4031.7
456.112	4109.21
456.486	4131.13
456.859	4171.59
457.232	4289.55
457.606	4279.38
457.979	4325.93
458.352	4407.29
458.725	4498.81
459.099	4495.19
459.472	4590.33
459.845	4672.59
460.218	4701.51
460.591	4778.12
460.964	4797.33
461.337	4868.97
461.71	4976.54
462.083	4997.1
462.456	5068.28
462.829	5061.28
463.201	5162.52
463.574	5145.34
463.947	5267.6
464.32	5336.07
464.692	5393.93
465.065	5499.91
465.438	5501.49
465.81	5537.65
466.183	5619.68
466.555	5725.89
466.928	5824.42
467.3	5823.52
467.672	5921.37
468.045	6077.07
468.417	6048.15
468.789	6090.18
469.161	6178.54
469.534	6261.47
469.906	6349.38
470.278	6451.98
470.65	6514.35
471.022	6618.53
471.394	6756.6
471.766	6782.14
472.138	6861.68
472.51	7005.18
472.882	7081.11
473.253	7142.13
473.625	7228.91
473.997	7469.8
474.369	7487.88
474.74	7545.96
475.112	7729.91
475.484	7808.78
475.855	7949.56
476.227	7982.33
476.598	8183.91
476.97	8312.49
477.341	8445.82
477.713	8556.33
478.084	8606.27
478.455	8959.93
478.827	8935.3
479.198	9158.12
479.569	9238.8
479.94	9476.76
480.311	9575.51
480.682	9788.39
481.053	9967.14
481.424	10205.32
481.795	10225.89
482.166	10343.4
482.537	10470.85
482.908	10730.51
483.279	10870.17
483.65	11014.12
484.021	11225.19
484.391	11378.18
484.762	11455.69
485.133	11567.77
485.503	11694.55
485.874	12003.92
486.244	12109.23
486.615	12415.89
486.985	12504.93
487.356	12795.77
487.726	12846.39
488.097	13114.4
488.467	13155.76
488.837	13465.58
489.207	13551
489.578	13752.35
489.948	13920.26
490.318	14104.88
490.688	14182.17
491.058	14446.12
491.428	14659.9
491.798	14734.25
492.168	14981.24
492.538	15099.89
492.908	15251.29
493.278	15378.75
493.648	15418.52
494.017	15732.64
494.387	15782.81
494.757	15883.59
495.126	16124.27
495.496	16152.06
495.866	16280.65
496.235	16424.82
496.605	16550.47
496.974	16606.29
497.344	16896.45
497.713	16823.23
498.082	16965.6
498.452	17085.14
498.821	17291.92
499.19	17213.05
499.559	17440.61
499.928	17519.03
500.298	17583.44
500.667	17791.11
501.036	17694.17
501.405	17966.48
501.774	17907.5
502.143	18015.06
502.512	18176.87
502.88	18276.75
503.249	18298.67
503.618	18460.25
503.987	18521.94
504.356	18600.81
504.724	18738.89
505.093	18814.36
505.462	18864.98
505.83	19087.35
506.199	19137.29
506.567	19367.57
506.936	19256.61
507.304	19557.4
507.672	19628.35
508.041	19605.76
508.409	19849.82
508.777	19950.61
509.145	20110.15
509.514	20073.54
509.882	20110.15
510.25	20303.36
510.618	20438.28
510.986	20400.09
511.354	20530.93
511.722	20723.24
512.09	21000.07
512.458	20818.83
512.826	21052.05
513.193	21117.35
513.561	21155.55
513.929	21462.66
514.297	21522.09
514.664	21655.65
515.032	21763.44
515.4	21937.45
515.767	22052.02
516.135	22115.52
516.502	22031.23
516.869	22522.97
517.237	22537.88
517.604	22491.33
517.972	22759.8
518.339	22829.17
518.706	22912.11
519.073	22993.24
519.44	23080.01
519.808	23262.61
520.175	23337.18
520.542	23638.87
520.909	23794.12
521.276	23939.65
521.643	24159.08
522.009	24226.65
522.376	24428.23
522.743	24455.8
523.11	24718.39
523.477	24891.27
523.843	24958.16
524.21	25265.95
524.577	25313.18
524.943	25469.78
525.31	25610.57
525.676	25938.02
526.043	26137.79
526.409	26099.6
526.776	26420.27
527.142	26508.17
527.508	26534.61
527.874	26876.52
528.241	26954.94
528.607	27098.44
528.973	27377.53
529.339	27254.14
529.705	27616.62
530.071	27740.46
530.437	27803.28
530.803	28061.58
531.169	28094.8
531.535	28100.9
531.901	28126.21
532.267	28312.87
532.632	28540.66
532.998	28614.11
533.364	28717.83
533.73	28718.74
534.095	28906.53
534.461	28965.74
534.826	29140.19
535.192	29083.47
535.557	29204.6
535.923	29422.9
536.288	29451.82
536.653	29445.95
537.019	29458.6
537.384	29525.72
537.749	29473.07
538.114	29667.19
538.479	29622.89
538.845	29821.98
539.21	29787.86
539.575	29798.03
539.94	29811.36
540.305	29977.46
540.67	29860.63
541.034	29815.2
541.399	30043.67
541.764	30024.24
542.129	30152.15
542.494	30073.28
542.858	30158.7
543.223	30094.52
543.587	30316.43
543.952	30161.86
544.316	30275.08
544.681	30166.61
545.045	30397.56
545.41	30354.4
545.774	30266.94
546.138	30325.93
546.503	30442.31
546.867	30343.78
547.231	30584.22
547.595	30588.97
547.959	30513.04
548.324	30639.59
548.688	30483.21
549.052	30625.13
549.416	30385.59
549.779	30481.18
550.143	30509.88
550.507	30803.2
550.871	30717.78
551.235	30648.63
551.599	30906.48
551.962	30853.14
552.326	30860.15
552.689	30784.67
553.053	30640.95
553.417	30827.16
553.78	31106.24
554.143	30910.32
554.507	30958.68
554.87	30958.45
555.234	31240.25
555.597	30954.61
555.96	31179.69
556.323	31148.5
556.686	31143.31
557.05	31423.52
557.413	31428.95
557.776	31238.44
558.139	31455.61
558.502	31452.45
558.865	31391.66
559.228	31670.75
559.59	31609.96
559.953	31599.11
560.316	31871.42
560.679	31801.59
561.041	31814.7
561.404	31983.51
561.767	32243.16
562.129	31953.68
562.492	32356.38
562.854	32182.83
563.217	32294.91
563.579	32326.55
563.941	32567.22
564.304	32400.22
564.666	32727.67
565.028	32639.09
565.39	32665.75
565.753	32912.98
566.115	32838.63
566.477	33061.9
566.839	33193.87
567.201	33395.9
567.563	33282.23
567.925	33460.08
568.287	33437.03
568.648	33470.93
569.01	33689.68
569.372	33955.89
569.734	33873.63
570.095	33994.53
570.457	33992.95
570.819	34140.51
571.18	34136.67
571.542	34321.53
571.903	34329.44
572.265	34446.27
572.626	34665.7
572.987	34710.67
573.349	34693.27
573.71	34815.53
574.071	34927.39
574.432	35094.16
574.794	35210.77
575.155	35235.85
575.516	35371.67
575.877	35417.09
576.238	35445.57
576.599	35654.6
576.96	35655.28
577.32	35799.91
577.681	35852.33
578.042	36085.77
578.403	35993.35
578.763	35953.8
579.124	36056.85
579.485	36240.57
579.845	36368.48
580.206	36174.59
580.566	36341.59
580.927	36419.32
581.287	36691.41
581.648	36410.29
582.008	36671.52
582.368	36608.92
582.728	36587.91
583.089	36770.05
583.449	36868.8
583.809	36836.49
584.169	36964.17
584.529	36869.26
584.889	37225.86
585.249	36917.62
585.609	36817.96
585.969	37171.85
586.329	37043.72
586.688	37325.52
587.048	37204.61
587.408	37242.58
587.768	37264.05
588.127	37361.67
588.487	37371.16
588.846	37745.84
589.206	37349.47
589.565	37378.62
589.925	37764.6
590.284	37590.37
590.643	37692.29
591.003	37813.86
591.362	38011.83
591.721	37973.41
592.08	37924.82
592.44	38095.89
592.799	38064.03
593.158	38129.79
593.517	38098.38
593.876	38438.25
594.235	38228.77
594.593	38246.4
594.952	38341.99
595.311	38301.08
595.67	38559.16
596.029	38726.61
596.387	38936.32
596.746	38813.16
597.104	38652.26
597.463	38697.68
597.822	38964.34
598.18	38795.99
598.538	38825.82
598.897	39156.65
599.255	38964.79
599.613	39390.32
599.972	39222.87
600.33	39331.11
600.688	39255.86
601.046	39343.99
601.404	39580.37
601.762	39554.38
602.12	39710.31
602.478	39705.57
602.836	39877.54
603.194	39554.84
603.552	39768.16
603.91	39758.67
604.268	39922.96
604.625	39852.23
604.983	40180.58
605.341	39827.82
605.698	40227.13
606.056	40482.72
606.413	40170.64
606.771	40382.61
607.128	40399.79
607.485	40394.14
607.843	40340.13
608.2	40702.15
608.557	40727.91
608.914	40699.21
609.272	40880.22
609.629	41022.14
609.986	41176.71
610.343	40987.11
610.7	41431.85
611.057	41262.81
611.414	41157.28
611.771	41541.68
612.127	41457.38
612.484	41705.29
612.841	41701.45
613.198	41671.62
613.554	41555.46
613.911	41772.86
614.267	41985.73
614.624	41931.72
614.98	42292.16
615.337	42223.92
615.693	42199.74
616.05	42216.91
616.406	42421.88
616.762	42304.82
617.118	42382.78
617.475	42289.68
617.831	42621.65
618.187	42701.65
618.543	42709.33
618.899	42973.73
619.255	42927.63
619.611	42791.36
619.967	43150.45
620.323	43126.95
620.678	42958.36
621.034	43030.45
621.39	43008.53
621.746	43086.49
622.101	43555.18
622.457	43209.65
622.812	43335.08
623.168	43530.78
623.523	43352.7
623.879	43567.61
624.234	43436.77
624.589	43529.65
624.945	43586.37
625.3	43477.22
625.655	43574.62
626.01	43689.19
626.365	43632.24
626.72	43616.65
627.075	43402.42
627.43	43676.54
627.785	43649.19
628.14	43632.02
628.495	43604.67
628.85	43606.93
629.205	43479.7
629.559	43799.47
629.914	43485.58
630.269	43528.06
630.623	43307.05
630.978	43153.39
631.332	43488.52
631.687	43513.38
632.041	43420.04
632.396	43508.4
632.75	43271.57
633.104	43463.21
633.459	43168.07
633.813	43280.61
634.167	43102.31
634.521	43261.4
634.875	43316.77
635.229	43032.71
635.583	42872.26
635.937	42997.46
636.291	43034.52
636.645	43052.37
636.999	42824.35
637.352	42955.88
637.706	42708.43
638.06	42900.28
638.413	42820.51
638.767	42737.58
639.121	42792.49
639.474	42574.19
639.828	42558.15
640.181	42547.75
640.534	42714.53
640.888	42566.06
641.241	42418.49
641.594	42601.54
641.947	42711.14
642.301	42510.92
642.654	42592.5
643.007	42491.26
643.36	42539.62
643.713	42505.49
644.066	42560.86
644.419	42454.87
644.771	42040.65
645.124	41613.09
645.477	41687.66
645.83	41435.01
646.182	41400.89
646.535	41312.3
646.888	41576.25
647.24	41421.91
647.593	41632.07
647.945	41463.71
648.298	41374.67
648.65	41193.89
649.002	41119.09
649.355	41114.12
649.707	40969.04
650.059	41055.14
650.411	41449.93
650.763	41708.68
651.115	42302.11
651.467	42076.13
651.819	42124.26
652.171	42099.18
652.523	41931.04
652.875	42145.95
653.227	41851.5
653.578	42145.05
653.93	42080.64
654.282	41864.61
654.633	41909.8
654.985	41972.17
655.337	42112.28
655.688	42035.22
656.039	42207.65
656.391	41807.66
656.742	41889.92
657.094	41987.99
657.445	42128.55
657.796	41992.51
658.147	41925.39
658.498	42115.9
658.849	42098.5
659.2	42042.68
659.551	42028.22
659.902	42235.44
660.253	42163.58
660.604	42279.74
660.955	42206.97
661.306	42221.21
661.656	42117.25
662.007	42230.02
662.358	42235.67
662.708	42353.86
663.059	42287.42
663.409	42134.43
663.76	42288.78
664.11	42393.18
664.461	42402.44
664.811	42377.81
665.161	42403.57
665.511	42296.01
665.862	42301.66
666.212	42453.29
666.562	42530.35
666.912	42383.01
667.262	42311.37
667.612	42325.38
667.962	42553.4
668.312	42372.16
668.662	42587.98
669.011	42521.76
669.361	42488.77
669.711	42575.32
670.06	42424.82
670.41	42282.67
670.76	42343.46
671.109	42493.52
671.459	42363.35
671.808	42281.09
672.157	42519.28
672.507	42111.15
672.856	42370.13
673.205	42266.4
673.554	42385.72
673.904	42246.74
674.253	42528.99
674.602	42262.11
674.951	41843.59
675.3	41535.12
675.649	42239.06
675.998	42093.3
676.346	42117.03
676.695	42185.27
677.044	41899.63
677.393	42131.94
677.741	42098.27
678.09	42013.08
678.438	41835.45
678.787	41895.11
679.135	41918.39
679.484	41634.33
679.832	41719.3
680.181	41563.37
680.529	41693.99
680.877	41538.29
681.225	41330.83
681.573	41729.24
681.922	41452.19
682.27	41132.42
682.618	41261.46
682.966	41261.01
683.314	41275.02
683.661	41052.88
684.009	40920
684.357	40850.17
684.705	40766.78
685.053	40771.98
685.4	40644.3
685.748	40581.25
686.095	40518.88
686.443	40047.25
686.79	40198.66
687.138	40377.41
687.485	40226
687.832	40018.78
688.18	40032.11
688.527	39926.13
688.874	39803.19
689.221	39645.68
689.568	39483.2
689.915	39383.99
690.262	39477.55
690.609	39402.52
690.956	39252.7
691.303	39129.76
691.65	38919.15
691.997	38850.22
692.344	38706.5
692.69	38586.05
693.037	38515.09
693.383	38172.05
693.73	38278.49
694.077	38019.06
694.423	37989
694.769	37745.62
695.116	37810.93
695.462	37540.43
695.808	37389.47
696.155	37502.23
696.501	37105.63
696.847	37233.09
697.193	36902.25
697.539	36835.13
697.885	36631.52
698.231	36490.28
698.577	36457.29
698.923	36387.24
699.269	36032.89
699.614	35953.8
699.96	35903.18
700.306	35813.01
700.651	35556.97
700.997	35481.04
701.342	35261.84
701.688	35201.28
702.033	35129.64
702.379	35115.63
702.724	34914.73
703.069	34979.81
703.415	34619.37
703.76	34527.17
704.105	34616.66
704.45	34438.13
704.795	34225.48
705.14	33977.36
705.485	34066.17
705.83	33886.96
706.175	33943.68
706.52	33837.7
706.865	33604.26
707.209	33470.93
707.554	33575.78
707.899	33435.9
708.243	33234.1
708.588	33322.23
708.932	33078.85
709.277	32993.65
709.621	32969.92
709.966	32892.19
710.31	32794.79
710.654	32551.86
710.998	32642.02
711.342	32603.38
711.687	32390.96
712.031	32437.28
712.375	32320.9
712.719	32202.94
713.063	32156.16
713.407	32440.45
713.75	32093.11
714.094	32028.03
714.438	31920.01
714.782	31938.76
715.125	31700.8
715.469	31798.43
715.812	31693.8
716.156	31714.59
716.499	31616.97
716.843	31694.7
717.186	31435.05
717.53	31735.83
717.873	31667.13
718.216	31651.31
718.559	31656.06
718.902	31408.84
719.246	31461.04
719.589	31400.02
719.932	31277.54
720.275	31259.91
720.617	31333.13
720.96	31256.07
721.303	31276.18
721.646	31316.63
721.989	31177.43
722.331	31368.61
722.674	31131.1
723.016	31147.83
723.359	31149.18
723.701	31246.13
724.044	31012.01
724.386	31067.38
724.729	31125
725.071	31160.48
725.413	31154.6
725.755	31135.85
726.097	31023.31
726.439	30944.67
726.782	31068.73
727.124	31123.64
727.465	31120.93
727.807	30972.46
728.149	31032.57
728.491	31048.62
728.833	31258.1
729.175	31145.79
729.516	31068.28
729.858	31051.33
730.199	31196.86
730.541	31139.46
730.882	31151.67
731.224	31156.64
731.565	30984.89
731.906	31149.18
732.248	31273.47
732.589	31106.92
732.93	31102.63
733.271	31256.3
733.612	31275.05
733.953	31316.18
734.294	31363.64
734.635	31190.31
734.976	31499.91
735.317	31341.27
735.658	31370.87
735.999	31415.84
736.339	31363.41
736.68	31538.1
737.021	31516.85
737.361	31519.11
737.702	31788.71
738.042	31588.72
738.383	31834.36
738.723	31897.18
739.063	31710.52
739.404	31964.75
739.744	31955.26
740.084	31856.51
740.424	31995.26
740.764	32053.56
741.104	32298.98
741.444	32211.53
741.784	32231.41
742.124	32453.33
742.464	32396.83
742.804	32492.2
743.143	32551.86
743.483	32663.72
743.823	32683.15
744.162	32828.23
744.502	32908.91
744.841	32884.5
745.181	33027.78
745.52	33044.72
745.86	33303.02
746.199	33378.73
746.538	33453.08
746.877	33754.54
747.216	33764.03
747.556	33825.72
747.895	33845.83
748.234	34028.88
748.573	34210.34
748.911	34314.97
749.25	34327.63
749.589	34390.45
749.928	34653.72
750.267	34970.1
750.605	34899.14
750.944	35108.17
751.283	35126.25
751.621	35282.63
751.96	35282.63
752.298	35546.58
752.636	35791.54
752.975	35810.08
753.313	35777.31
753.651	36273.34
753.989	36207.35
754.327	36392.88
754.666	36371.87
755.004	36528.25
755.342	36750.39
755.679	36899.99
756.017	36644.18
756.355	37191.06
756.693	37160.32
757.031	37489.58
757.368	37159.64
757.706	37393.76
758.044	37732.74
758.381	37733.19
758.719	37844.82
759.056	37992.16
759.394	37832.85
759.731	37891.15
760.068	38119.39
760.405	38122.1
760.743	38208.66
761.08	38421.76
761.417	38283.91
761.754	38477.35
762.091	38372.95
762.428	38471.02
762.765	38410.01
763.102	38581.98
763.438	38553.96
763.775	38485.49
764.112	38622.88
764.449	38649.77
764.785	38776.78
765.122	38628.98
765.458	38597.12
765.795	38692.49
766.131	38701.52
766.467	38676.21
766.804	38429.67
767.14	38546.73
767.476	38503.34
767.812	38367.07
768.148	38563
768.485	38580.85
768.821	38399.61
769.157	38410.68
769.492	38340.4
769.828	38469.21
770.164	38084.59
770.5	38178.37
770.836	38264.25
771.171	38077.81
771.507	37925.73
771.842	37819.29
772.178	37953.3
772.513	37938.83
772.849	37655.9
773.184	37779.29
773.519	37711.04
773.855	37417.04
774.19	37536.13
774.525	37383.37
774.86	37297.95
775.195	37364.38
775.53	37263.37
775.865	37033.55
776.2	36785.19
776.535	36722.82
776.87	36673.56
777.205	36548.81
777.539	36488.93
777.874	36556.27
778.209	36290.06
778.543	36425.88
778.878	36041.26
779.212	35975.49
779.547	35845.33
779.881	35920.13
780.215	35627.93
780.55	35746.57
780.884	35445.11
781.218	35512.23
781.552	35412.57
781.886	35317.66
782.22	35157.44
782.554	34984.11
782.888	34747.05
783.222	34718.8
783.556	34600.16
783.889	34527.17
784.223	34287.86
784.557	34165.15
784.89	34349.32
785.224	33994.53
785.557	33926.74
785.891	33864.82
786.224	33901.42
786.558	33747.53
786.891	33487.88
787.224	33349.8
787.557	33358.84
787.891	33364.04
788.224	33062.8
788.557	33188.9
788.89	33113.42
789.223	32962.01
789.556	32721.57
789.888	32673.66
790.221	32449.26
790.554	32417.17
790.887	32427.57
791.219	32096.73
791.552	32164.07
791.884	32074.13
792.217	31852.67
792.549	31889.05
792.882	31522.28
793.214	31573.12
793.546	31423.07
793.879	31404.32
794.211	31178.56
794.543	31442.28
794.875	31268.95
795.207	31159.12
795.539	31078.67
795.871	31086.81
796.203	30784.67
796.535	30644.79
796.867	30652.92
797.198	30531.8
797.53	30457
797.862	30204.35
798.193	30298.81
798.525	30069.44
798.856	30273.72
799.188	29844.36
799.519	29879.16
799.85	29520.52
800.182	29703.34
800.513	29771.82
800.844	29328.66
801.175	29673.97
801.506	29547.42
801.837	29337.93
802.168	29293.18
802.499	29422.22
802.83	29099.74
803.161	29111.27
803.491	28960.99
803.822	29041.21
804.153	28898.39
804.483	28634.67
804.814	28501.34
805.145	28549.7
805.475	28579.53
805.805	28502.24
806.136	28627.89
806.466	28317.39
806.796	28264.29
807.126	28032.2
807.457	28075.82
807.787	28161.91
808.117	28018.64
808.447	27888.7
808.777	27936.38
809.107	27700.46
809.436	27584.3
809.766	27680.8
810.096	27588.14
810.426	27459.11
810.755	27568.03
811.085	27398.55
811.414	27477.87
811.744	27157.42
812.073	27302.28
812.403	27165.78
812.732	26999.23
813.061	27175.5
813.39	26893.93
813.719	26876.3
814.049	27032
814.378	26804.89
814.707	26733.25
815.036	26634.72
815.365	26565.35
815.693	26439.7
816.022	26377.78
816.351	26253.04
816.68	26264.56
817.008	26306.6
817.337	26017.79
817.665	26043.33
817.994	25991.58
818.322	26051.69
818.651	25934.63
818.979	25920.17
819.307	25898.7
819.636	25761.07
819.964	25791.13
820.292	25799.49
820.62	25768.76
820.948	25840.39
821.276	25921.07
821.604	25651.47
821.932	25853.73
822.259	25768.53
822.587	25624.81
822.915	25647.18
823.243	25767.85
823.57	25594.98
823.898	25704.58
824.225	25630
824.553	25582.1
824.88	25708.19
825.207	25752.71
825.535	25626.16
825.862	25686.5
826.189	25729.21
826.516	25924.23
826.843	25791.13
827.17	25764.24
827.497	25770.57
827.824	25914.52
828.151	25882.43
828.478	25722.43
828.805	25912.03
829.131	25764.24
829.458	25869.55
829.785	25645.14
830.111	25802.43
830.438	25874.07
830.764	25778.47
831.09	25821.41
831.417	25796.55
831.743	25841.98
832.069	25795.2
832.395	25724.92
832.722	25857.34
833.048	25586.39
833.374	25729.66
833.7	25612.38
834.026	25645.37
834.351	25569.89
834.677	25649.21
835.003	25684.01
835.329	25715.43
835.654	25587.52
835.98	25385.49
836.306	25572.15
836.631	25462.78
836.956	25588.42
837.282	25537.35
837.607	25464.36
837.932	25441.76
838.258	25382.1
838.583	25352.5
838.908	25320.86
839.233	25285.83
839.558	25192.5
839.883	25070.24
840.208	24982.56
840.533	25006.74
840.858	25170.13
841.182	25152.28
841.507	24985.05
841.832	24919.51
842.156	24825.96
842.481	24834.77
842.805	24724.72
843.13	24678.16
843.454	24685.17
843.778	24497.15
844.103	24527.43
844.427	24498.51
844.751	24600.88
845.075	24481.11
845.399	24349.59
845.723	24288.57
846.047	24345.07
846.371	24100.33
846.695	24071.4
847.019	23985.3
847.343	23748.7
847.666	23791.18
847.99	23769.94
848.313	23617.4
848.637	23584.63
848.96	23471.87
849.284	23397.97
849.607	23183.51
849.931	23181.48
850.254	23027.36
850.577	22906.23
850.9	22780.81
851.223	22835.05
851.546	22673.02
851.869	22551.67
852.192	22689.97
852.515	22385.34
852.838	22414.04
853.161	22312.35
853.483	22143.54
853.806	22099.25
854.129	22087.27
854.451	21969.31
854.774	21851.8
855.096	21836.66
855.419	21820.39
855.741	21763.21
856.063	21653.61
856.385	21612.48
856.708	21458.81
857.03	21414.52
857.352	21465.37
857.674	21331.81
857.996	21284.81
858.318	21192.61
858.64	21195.09
858.961	21038.26
859.283	21038.71
859.605	20868.55
859.926	20922.78
860.248	20925.49
860.57	20647.31
860.891	20759.17
861.212	20679.4
861.534	20661.1
861.855	20498.84
862.176	20678.72
862.498	20608.67
862.819	20510.36
863.14	20405.06
863.461	20360.31
863.782	20304.49
864.103	20316.02
864.424	20300.88
864.745	20367.54
865.065	20307.88
865.386	20007.1
865.707	20085.74
866.027	20161.67
866.348	20125.52
866.668	20050.49
866.989	20001.68
867.309	19911.28
867.63	19910.38
867.95	19989.25
868.27	19908.57
868.59	19914.45
868.91	19808.91
869.23	19711.06
869.55	19797.16
869.87	19750.38
870.19	19663.61
870.51	19680.78
870.83	19661.8
871.15	19496.15
871.469	19492.31
871.789	19549.71
872.109	19421.58
872.428	19393.56
872.748	19422.71
873.067	19482.37
873.386	19419.77
873.706	19411.64
874.025	19249.83
874.344	19185.65
874.663	19271.98
874.982	19296.61
875.301	19166.67
875.62	19121.47
875.939	19096.16
876.258	19131.87
876.577	18970.74
876.896	19071.08
877.214	18995.38
877.533	18921.93
877.852	18889.16
878.17	18852.33
878.489	18946.11
878.807	18730.98
879.125	18742.28
879.444	18802.16
879.762	18739.56
880.08	18793.12
880.398	18653.24
880.716	18683.29
881.034	18614.6
881.352	18561.04
881.67	18460.25
881.988	18464.99
882.306	18382.06
882.624	18370.31
882.941	18384.09
883.259	18346.81
883.577	18351.1
883.894	18354.26
884.212	18196.3
884.529	18106.81
884.846	18041.5
885.164	17963.76
885.481	17933.03
885.798	18031.33
886.115	17844.45
886.432	18008.51
886.75	17937.32
887.067	17895.52
887.383	17708.4
887.7	17744.56
888.017	17593.83
888.334	17584.79
888.651	17466.15
888.967	17557.22
889.284	17435.19
889.6	17362.88
889.917	17345.25
890.233	17381.86
890.55	17227.97
890.866	17295.53
891.182	17209.21
891.498	17167.85
891.815	16964.7
892.131	16995.2
892.447	16975.32
892.763	16915.2
893.079	16826.39
893.395	16891.93
893.71	16822.33
894.026	16683.57
894.342	16686.74
894.657	16588.43
894.973	16587.98
895.289	16498.49
895.604	16390.7
895.92	16397.48
896.235	16470.24
896.55	16347.08
896.865	16341.43
897.181	16218.95
897.496	16228.22
897.811	16148.9
898.126	16062.57
898.441	16021.9
898.756	15998.84
899.071	15932.63
899.386	15889.02
899.7	15766.31
900.015	15710.26
900.33	15562.47
900.644	15584.62
900.959	15565.86
901.273	15445.19
901.588	15441.8
901.902	15363.16
902.216	15326.55
902.531	15250.62
902.845	15207.68
903.159	15063.05
903.473	15065.31
903.787	14948.93
904.101	14875.26
904.415	15017.63
904.729	14861.25
905.042	14821.93
905.356	14721.82
905.67	14750.52
905.984	14647.24
906.297	14623.06
906.611	14477.75
906.924	14510.52
907.237	14419.45
907.551	14430.07
907.864	14322.28
908.177	14370.19
908.491	14222.62
908.804	14186.69
909.117	14070.53
909.43	13943.31
909.743	13927.49
910.056	13913.02
910.368	13869.18
910.681	13768.17
910.994	13659.7
911.307	13662.86
911.619	13569.98
911.932	13555.52
912.244	13501.96
912.557	13479.59
912.869	13318.92
913.181	13388.97
913.494	13278.69
913.806	13256.54
914.118	13192.36
914.43	13106.94
914.742	13070.79
915.054	12985.14
915.366	13012.71
915.678	12998.7
915.99	12885.25
916.302	12797.12
916.613	12770.68
916.925	12777.91
917.236	12644.36
917.548	12590.35
917.859	12566.39
918.171	12452.5
918.482	12381.99
918.794	12372.95
919.105	12386.28
919.416	12322.56
919.727	12213.41
920.038	12224.93
920.349	12183.58
920.66	12096.57
920.971	12022.45
921.282	12016.58
921.593	11889.12
921.903	11766.87
922.214	11838.28
922.525	11772.74
922.835	11774.78
923.146	11655.91
923.456	11648
923.767	11578.4
924.077	11569.58
924.387	11513.54
924.697	11432.19
925.008	11397.61
925.318	11333.66
925.628	11386.99
925.938	11319.87
926.248	11205.52
926.558	11079.2
926.867	11103.61
927.177	10986.77
927.487	11042.82
927.796	10911.97
928.106	10914.91
928.416	10934.12
928.725	10856.61
929.034	10694.8
929.344	10792.88
929.653	10683.96
929.962	10594.92
930.271	10568.48
930.581	10598.99
930.89	10470.85
931.199	10454.81
931.508	10393.34
931.817	10396.05
932.125	10383.63
932.434	10296.85
932.743	10195.16
933.051	10180.47
933.36	10164.87
933.669	10049.85
933.977	10024.31
934.286	9959.46
934.594	9961.49
934.902	9937.54
935.21	9794.94
935.519	9860.48
935.827	9830.42
936.135	9732.12
936.443	9712.91
936.751	9632.91
937.059	9645.79
937.367	9567.83
937.674	9553.59
937.982	9509.75
938.29	9470.2
938.597	9411.22
938.905	9343.43
939.213	9363.77
939.52	9303.65
939.827	9246.25
940.135	9188.63
940.442	9132.81
940.749	9150.44
941.056	9109.76
941.363	9017.56
941.67	9040.38
941.977	8978.01
942.284	8938.92
942.591	8897.11
942.898	8954.96
943.205	8867.05
943.511	8764.68
943.818	8790.9
944.125	8703.22
944.431	8620.73
944.738	8642.65
945.044	8559.04
945.35	8538.25
945.657	8470.46
945.963	8515.43
946.269	8429.33
946.575	8459.16
946.881	8387.97
947.187	8358.82
947.493	8302.78
947.799	8233.4
948.105	8196.56
948.41	8176.9
948.716	8176.45
949.022	8122.44
949.327	8059.62
949.633	8013.52
949.938	8023.01
950.244	7999.51
950.549	7925.38
950.854	7894.43
951.16	7860.98
951.465	7745.05
951.77	7756.8
952.075	7717.25
952.38	7721.55
952.685	7620.53
952.99	7622.57
953.294	7622.12
953.599	7486.98
953.904	7508.67
954.209	7436.81
954.513	7536.24
954.818	7416.02
955.122	7418.51
955.426	7379.86
955.731	7346.87
956.035	7300.54
956.339	7268.45
956.643	7206.31
956.948	7192.3
957.252	7222.13
957.556	7141
957.86	7128.34
958.163	7063.03
958.467	7073.66
958.771	7033.2
959.075	6973.09
959.378	6890.61
959.682	6909.59
959.985	6932.87
960.289	6860.33
960.592	6844.28
960.896	6834.79
961.199	6804.06
961.502	6788.69
961.805	6703.04
962.108	6675.25
962.411	6561.8
962.714	6587.57
963.017	6545.31
963.32	6595.25
963.623	6507.79
963.926	6497.85
964.228	6443.62
964.531	6446.33
964.833	6456.5
965.136	6382.37
965.438	6363.17
965.741	6289.27
966.043	6295.15
966.345	6255.6
966.648	6252.21
966.95	6249.95
967.252	6176.05
967.554	6177.18
967.856	6158.43
968.158	6116.62
968.46	6092.44
968.761	6042.95
969.063	6045.21
969.365	5990.29
969.666	5977.64
969.968	5934.48
970.269	5916.17
970.571	5902.84
970.872	5834.37
971.174	5797.98
971.475	5831.2
971.776	5770.64
972.077	5710.3
972.378	5737.87
972.679	5684.09
972.98	5688.61
973.281	5650.64
973.582	5625.78
973.883	5627.14
974.183	5563.41
974.484	5525.22
974.785	5493.13
975.085	5505.79
975.386	5502.62
975.686	5470.31
975.986	5369.07
976.287	5425.34
976.587	5382.63
976.887	5362.74
977.187	5383.3
977.487	5356.64
977.787	5299.24
978.087	5282.06
978.387	5252.91
978.687	5209.07
978.987	5155.97
979.286	5186.7
979.586	5152.58
979.885	5088.4
980.185	5068.06
980.484	5055.4
980.784	5037.78
981.083	5008.63
981.382	4909.64
981.682	5009.08
981.981	4955.07
982.28	4979.25
982.579	4885.69
982.878	4865.58
983.177	4829.42
983.475	4809.08
983.774	4763.43
984.073	4792.59
984.372	4722.08
984.67	4769.76
984.969	4712.59
985.267	4712.14
985.566	4675.3
985.864	4648.41
986.162	4624.68
986.461	4602.31
986.759	4578.35
987.057	4559.15
987.355	4552.82
987.653	4501.52
987.951	4478.47
988.249	4449.09
988.547	4435.53
988.844	4454.74
989.142	4452.48
989.44	4408.19
989.737	4295.42
990.035	4358.25
990.332	4324.58
990.63	4314.41
990.927	4288.64
991.224	4306.5
991.521	4213.39
991.819	4231.47
992.116	4188.08
992.413	4203
992.71	4125.03
993.006	4167.97
993.303	4123.9
993.6	4087.29
993.897	4116.45
994.193	4089.1
994.49	4038.71
994.787	4021.98
995.083	4000.06
995.379	3962.33
995.676	3953.74
995.972	3941.99
996.268	3918.94
996.565	3894.53
996.861	3895.21
997.157	3870.35
997.453	3812.5
997.749	3784.02
998.044	3802.33
998.34	3804.59
998.636	3749.22
998.932	3729.79
999.227	3744.93
999.523	3689.34
999.818	3675.1
1000.114	3639.62
1000.409	3626.74
1000.704	3588.32
1001	3591.26
1001.295	3556.69
1001.59	3539.96
1001.885	3505.61
1002.18	3525.95
1002.475	3503.58
1002.77	3512.39
1003.065	3436.46
1003.359	3419.97
1003.654	3415.9
1003.949	3372.06
1004.243	3357.82
1004.538	3344.49
1004.832	3325.05
1005.127	3325.73
1005.421	3278.05
1005.715	3248.9
1006.009	3268.11
1006.304	3240.76
1006.598	3238.95
1006.892	3179.52
1007.186	3153.98
1007.48	3181.1
1007.773	3082.57
1008.067	3112.86
1008.361	3122.12
1008.655	3073.99
1008.948	3013.65
1009.242	3031.5
1009.535	3007.55
1009.829	3053.65
1010.122	2994.67
1010.415	2985.63
1010.708	2932.75
1011.001	2939.75
1011.295	2901.34
1011.588	2896.36
1011.881	2852.98
1012.173	2862.24
1012.466	2878.06
1012.759	2844.16
1013.052	2849.36
1013.344	2812.3
1013.637	2798.29
1013.93	2759.42
1014.222	2744.73
1014.514	2740.44
1014.807	2706.76
1015.099	2678.97
1015.391	2683.26
1015.683	2678.74
1015.976	2635.13
1016.268	2591.06
1016.56	2605.52
1016.851	2577.95
1017.143	2558.52
1017.435	2517.39
1017.727	2512.87
1018.018	2513.78
1018.31	2495.47
1018.602	2506.54
1018.893	2483.04
1019.185	2454.57
1019.476	2440.11
1019.767	2375.02
1020.058	2385.87
1020.35	2363.95
1020.641	2339.32
1020.932	2318.3
1021.223	2349.26
1021.514	2302.71
1021.804	2291.41
1022.095	2274.01
1022.386	2278.08
1022.677	2261.35
1022.967	2231.98
1023.258	2190.17
1023.548	2212.54
1023.839	2151.53
1024.129	2143.84
1024.419	2139.32
1024.709	2116.5
1025	2118.98
1025.29	2083.73
1025.58	2079.44
1025.87	2079.21
1026.16	2041.25
1026.449	2062.04
1026.739	2027.46
1027.029	2015.48
1027.319	1975.48
1027.608	2002.15
1027.898	1983.39
1028.187	1976.84
1028.477	1955.15
1028.766	1942.04
1029.055	1927.12
1029.344	1915.15
1029.634	1892.32
1029.923	1901.59
1030.212	1866.79
1030.501	1847.13
1030.79	1839.22
1031.078	1798.77
1031.367	1807.13
1031.656	1780.91
1031.945	1774.13
1032.233	1787.69
1032.522	1728.94
1032.81	1759.9
1033.099	1715.6
1033.387	1707.24
1033.675	1693.91
1033.963	1654.36
1034.251	1694.59
1034.54	1669.28
1034.828	1679.22
1035.116	1645.1
1035.403	1666.11
1035.691	1614.36
1035.979	1627.25
1036.267	1620.69
1036.554	1577.08
1036.842	1559.9
1037.129	1564.87
1037.417	1555.61
1037.704	1547.93
1037.992	1515.61
1038.279	1510.86
1038.566	1482.62
1038.853	1482.62
1039.14	1482.62
