Data from 291_FLMS001491_008.txt Node
Date: Thu Apr 19 16:45:51 BST 2018
User: hsy
Spectrometer: FLMS00149
Trigger mode: 0
Integration Time (sec): 1.000000E-2
Scans to average: 10
Electric dark correction enabled: true
Nonlinearity correction enabled: false
Boxcar width: 0
XAxis mode: Wavelengths
Number of Pixels in Spectrum: 2048
>>>>>Begin Spectral Data<<<<<
341.393	-24.76
341.776	-24.76
342.16	-24.76
342.543	-78.09
342.927	-82.84
343.31	-73.35
343.693	-64.08
344.077	-72.22
344.46	-61.59
344.843	-47.58
345.226	-51.88
345.61	-26.34
345.993	-24.08
346.376	-13.69
346.759	3.49
347.142	52.07
347.525	33.54
347.908	66.76
348.291	68.57
348.674	101.57
349.057	108.8
349.44	114.9
349.823	146.08
350.206	174.11
350.588	219.75
350.971	227.66
351.354	257.49
351.737	275.35
352.119	291.39
352.502	311.5
352.884	308.57
353.267	292.52
353.65	318.96
354.032	333.88
354.414	350.15
354.797	338.17
355.179	368.68
355.562	362.12
355.944	358.96
356.326	379.52
356.709	374.78
357.091	358.06
357.473	395.34
357.855	356.25
358.238	382.01
358.62	378.85
359.002	375
359.384	363.93
359.766	371.61
360.148	359.64
360.53	378.17
360.912	360.77
361.294	378.39
361.676	379.75
362.057	374.33
362.439	370.94
362.821	377.94
363.203	363.03
363.584	351.05
363.966	350.82
364.348	373.65
364.729	358.73
365.111	354.67
365.493	357.83
365.874	357.38
366.256	357.83
366.637	363.25
367.019	358.06
367.4	363.93
367.781	360.99
368.163	355.12
368.544	322.58
368.925	358.06
369.306	350.6
369.688	368.9
370.069	326.87
370.45	358.28
370.831	355.34
371.212	356.02
371.593	352.41
371.974	354.67
372.355	358.73
372.736	376.59
373.117	385.85
373.498	374.33
373.879	366.87
374.26	352.41
374.641	346.08
375.021	367.77
375.402	367.09
375.783	371.16
376.163	402.57
376.544	389.24
376.925	387.43
377.305	379.3
377.686	390.82
378.066	395.57
378.447	394.44
378.827	391.28
379.208	396.25
379.588	393.76
379.968	414.78
380.349	379.75
380.729	389.47
381.109	411.39
381.489	419.75
381.87	400.99
382.25	416.36
382.63	431.95
383.01	417.26
383.39	395.34
383.77	405.06
384.15	433.08
384.53	431.5
384.91	428.79
385.29	431.5
385.67	443.48
386.049	442.12
386.429	457.71
386.809	461.1
387.189	442.35
387.568	464.72
387.948	449.8
388.328	428.34
388.707	470.14
389.087	469.69
389.466	454.78
389.846	485.51
390.225	457.49
390.605	475.34
390.984	491.61
391.363	493.87
391.743	485.51
392.122	500.88
392.501	493.42
392.881	499.75
393.26	516.24
393.639	512.18
394.018	495.91
394.397	499.97
394.776	525.06
395.155	523.7
395.534	516.7
395.913	518.05
396.292	534.1
396.671	544.94
397.05	558.05
397.429	572.06
397.808	554.66
398.186	565.73
398.565	570.25
398.944	564.6
399.323	589.01
399.701	577.26
400.08	572.74
400.458	597.15
400.837	605.51
401.215	579.07
401.594	598.28
401.972	633.75
402.351	621.1
402.729	641.66
403.107	645.96
403.486	652.29
403.864	633.98
404.242	662.68
404.62	673.75
404.999	677.6
405.377	686.18
405.755	715.33
406.133	725.5
406.511	728.44
406.889	740.19
407.267	736.58
407.645	781.1
408.023	763.02
408.401	777.71
408.779	785.84
409.156	807.31
409.534	817.48
409.912	840.3
410.29	857.93
410.667	885.27
411.045	891.15
411.422	903.35
411.8	924.14
412.178	912.39
412.555	954.88
412.933	1002.56
413.31	990.36
413.687	1020.86
414.065	1045.27
414.442	1039.85
414.819	1065.38
415.197	1043.01
415.574	1094.76
415.951	1097.47
416.328	1125.04
416.705	1120.3
417.082	1130.01
417.46	1170.01
417.837	1199.39
418.214	1222.67
418.591	1199.39
418.967	1233.29
419.344	1237.58
419.721	1273.29
420.098	1273.51
420.475	1320.97
420.852	1310.12
421.228	1330.69
421.605	1333.4
421.982	1371.14
422.358	1386.73
422.735	1429.21
423.111	1401.19
423.488	1429.44
423.864	1437.8
424.241	1471.92
424.617	1493.84
424.994	1501.98
425.37	1532.94
425.746	1515.09
426.123	1573.16
426.499	1582.66
426.875	1607.51
427.251	1631.02
427.627	1692.48
428.003	1671.92
428.379	1697.46
428.756	1698.13
429.132	1761.41
429.507	1782.65
429.883	1825.14
430.259	1854.29
430.635	1839.82
431.011	1888.18
431.387	1902.42
431.763	1936.77
432.138	1957.34
432.514	1985.13
432.89	2005.02
433.265	2074.39
433.641	2101.96
434.016	2090.67
434.392	2184.9
434.767	2211.79
435.143	2226.48
435.518	2236.2
435.894	2291.79
436.269	2316.42
436.644	2368.17
437.02	2386.02
437.395	2368.62
437.77	2435.74
438.145	2485.68
438.52	2530.65
438.895	2551.9
439.271	2543.76
439.646	2570.43
440.021	2637.32
440.395	2634.83
440.77	2652.46
441.145	2665.57
441.52	2743.3
441.895	2749.41
442.27	2788.27
442.645	2772
443.019	2808.84
443.394	2828.05
443.769	2848.84
444.143	2879.35
444.518	2907.82
444.892	2929.06
445.267	2939.68
445.641	2944.65
446.016	2994.37
446.39	3021.49
446.764	3062.62
447.139	3035.73
447.513	3092.45
447.887	3090.41
448.262	3120.24
448.636	3173.35
449.01	3205.44
449.384	3221.26
449.758	3266.23
450.132	3291.76
450.506	3270.07
450.88	3360.46
451.254	3353.68
451.628	3403.17
452.002	3417.18
452.376	3487.24
452.75	3519.55
453.123	3543.96
453.497	3617.63
453.871	3646.1
454.244	3726.55
454.618	3754.8
454.992	3783.73
455.365	3827.79
455.739	3921.13
456.112	3980.56
456.486	3948.7
456.859	4056.72
457.232	4103.04
457.606	4189.37
457.979	4209.25
458.352	4312.08
458.725	4346.43
459.099	4379.64
459.472	4416.03
459.845	4506.2
460.218	4513.43
460.591	4569.92
460.964	4647.21
461.337	4703.7
461.71	4801.33
462.083	4855.79
462.456	4876.13
462.829	4883.13
463.201	4978.95
463.574	5028.89
463.947	5151.38
464.32	5181.43
464.692	5250.58
465.065	5280.64
465.438	5337.13
465.81	5442.22
466.183	5518.6
466.555	5590.46
466.928	5677.69
467.3	5653.96
467.672	5766.05
468.045	5883.33
468.417	5891.24
468.789	5968.3
469.161	5999.72
469.534	6073.84
469.906	6209.88
470.278	6221.4
470.65	6347.5
471.022	6495.52
471.394	6555.86
471.766	6623.88
472.138	6709.98
472.51	6886.02
472.882	6959.92
473.253	7003.53
473.625	7034.04
473.997	7262.05
474.369	7324.65
474.74	7390.64
475.112	7493.46
475.484	7600.35
475.855	7789.72
476.227	7817.52
476.598	8076.5
476.97	8159.88
477.341	8298.64
477.713	8412.76
478.084	8443.27
478.455	8641.23
478.827	8723.49
479.198	8980.88
479.569	9050.03
479.94	9207.99
480.311	9318.72
480.682	9575.44
481.053	9772.95
481.424	9856.11
481.795	9979.5
482.166	10153.05
482.537	10288.19
482.908	10469.2
483.279	10621.51
483.65	10797.78
484.021	10955.07
484.391	11095.17
484.762	11160.94
485.133	11349.18
485.503	11498.1
485.874	11732.45
486.244	11880.24
486.615	12097.63
486.985	12171.98
487.356	12442.26
487.726	12601.35
488.097	12814.45
488.467	12881.12
488.837	13114.78
489.207	13256.93
489.578	13537.6
489.948	13609.46
490.318	13723.81
490.688	13781.66
491.058	14110.01
491.428	14277.24
491.798	14334.19
492.168	14600.17
492.538	14714.06
492.908	14919.03
493.278	15079.25
493.648	15055.07
494.017	15263.43
494.387	15402.86
494.757	15498.45
495.126	15618.67
495.496	15730.76
495.866	15895.73
496.235	15905.22
496.605	16186.11
496.974	16180.24
497.344	16281.48
497.713	16382.49
498.082	16626.55
498.452	16629.94
498.821	16743.39
499.19	16838.07
499.559	17020.67
499.928	16982.7
500.298	17108.35
500.667	17266.09
501.036	17282.13
501.405	17423.14
501.774	17403.03
502.143	17500.88
502.512	17564.61
502.88	17709.24
503.249	17718.73
503.618	17892.96
503.987	17858.39
504.356	18041.88
504.724	18150.13
505.093	18087.76
505.462	18233.74
505.83	18140.19
506.199	18439.84
506.567	18556.67
506.936	18589.89
507.304	18911.01
507.672	18925.25
508.041	19023.78
508.409	19073.27
508.777	19296.09
509.145	19234.4
509.514	19231.68
509.882	19540.15
510.25	19418.12
510.618	19624.22
510.986	19560.71
511.354	19742.63
511.722	19983.75
512.09	20121.38
512.458	20037.31
512.826	20248.83
513.193	20257.65
513.561	20390.07
513.929	20503.29
514.297	20595.04
514.664	20726.33
515.032	20738.31
515.4	20937.85
515.767	21070.73
516.135	21153.67
516.502	20957.51
516.869	21395.69
517.237	21338.52
517.604	21398.86
517.972	21685.18
518.339	21696.25
518.706	21753.65
519.073	21854.89
519.44	21971.72
519.808	22306.41
520.175	22188.44
520.542	22469.34
520.909	22494.42
521.276	22562.67
521.643	22786.84
522.009	22846.73
522.376	23055.76
522.743	23082.66
523.11	23367.85
523.477	23465.24
523.843	23569.87
524.21	23793.6
524.577	23956.08
524.943	24149.75
525.31	24048.51
525.676	24360.14
526.043	24473.58
526.409	24544.09
526.776	24793.35
527.142	24823.4
527.508	24826.56
527.874	25033.79
528.241	25121.02
528.607	25224.97
528.973	25538.64
529.339	25426.55
529.705	25621.57
530.071	25833.54
530.437	25851.85
530.803	25951.05
531.169	26025.4
531.535	26168.68
531.901	26245.96
532.267	26221.56
532.632	26434.43
532.998	26432.17
533.364	26467.43
533.73	26525.28
534.095	26671.49
534.461	26703.13
534.826	26693.63
535.192	26805.5
535.557	26959.62
535.923	26848.43
536.288	26923.23
536.653	26960.29
537.019	26943.35
537.384	26997.58
537.749	27025.38
538.114	27044.36
538.479	26975.89
538.845	27080.74
539.21	27062.44
539.575	27075.77
539.94	27113.06
540.305	27283.68
540.67	27210.46
541.034	27212.26
541.399	27265.6
541.764	27215.88
542.129	27292.49
542.494	27246.84
542.858	27252.26
543.223	27124.36
543.587	27188.99
543.952	27218.37
544.316	27312.38
544.681	27210.68
545.045	27236.67
545.41	27279.83
545.774	27258.82
546.138	27160.97
546.503	27335.65
546.867	27147.41
547.231	27244.35
547.595	27258.37
547.959	27248.65
548.324	27275.31
548.688	27323.45
549.052	27173.17
549.416	27099.73
549.779	27090.23
550.143	27232.83
550.507	27279.83
550.871	27265.37
551.235	27219.95
551.599	27367.74
551.962	27266.5
552.326	27271.92
552.689	27242.55
553.053	27102.21
553.417	27087.07
553.78	27355.76
554.143	27277.57
554.507	27257.69
554.87	27278.93
555.234	27515.76
555.597	27174.3
555.96	27266.5
556.323	27299.72
556.686	27234.41
557.05	27403.9
557.413	27344.01
557.776	27313.5
558.139	27518.25
558.502	27358.02
558.865	27527.06
559.228	27493.61
559.59	27460.62
559.953	27521.18
560.316	27641.63
560.679	27602.76
561.041	27708.3
561.404	27741.97
561.767	27891.79
562.129	27727.96
562.492	27883.66
562.854	27783.55
563.217	27798.92
563.579	27845.24
563.941	27949.65
564.304	28007.27
564.666	28204.33
565.028	28113.48
565.39	28175.86
565.753	28396.87
566.115	28362.52
566.477	28354.83
566.839	28466.7
567.201	28597.77
567.563	28507.15
567.925	28594.38
568.287	28692.68
568.648	28664.2
569.01	28813.13
569.372	29000.69
569.734	28915.04
570.095	29117.98
570.457	29193
570.819	29174.02
571.18	29145.77
571.542	29295.37
571.903	29343.96
572.265	29300.35
572.626	29486.78
572.987	29480
573.349	29614.46
573.71	29642.48
574.071	29689.94
574.432	29881.12
574.794	30016.03
575.155	29905.3
575.516	29763.61
575.877	29949.14
576.238	29926.77
576.599	29988.01
576.96	30149.14
577.32	30185.07
577.681	30055.13
578.042	30304.84
578.403	30117.73
578.763	30204.73
579.124	30259.19
579.485	30530.37
579.845	30469.13
580.206	30389.13
580.566	30392.52
580.927	30278.85
581.287	30475.46
581.648	30486.53
582.008	30575.11
582.368	30520.65
582.728	30599.97
583.089	30629.35
583.449	30632.29
583.809	30636.81
584.169	30790.25
584.529	30654.21
584.889	30803.36
585.249	30728.78
585.609	30543.48
585.969	30794.32
586.329	30695.11
586.688	30863.24
587.048	30588.9
587.408	30754.32
587.768	30809.91
588.127	30716.13
588.487	30782.79
588.846	31045.38
589.206	30682.91
589.565	30801.77
589.925	30934.88
590.284	30812.62
590.643	30800.87
591.003	31040.86
591.362	31001.54
591.721	31011.26
592.08	31013.29
592.44	31103.91
592.799	30993.18
593.158	31031.37
593.517	30994.76
593.876	31129.45
594.235	31020.3
594.593	31053.75
594.952	31204.25
595.311	31173.74
595.67	31033.63
596.029	31239.96
596.387	31302.55
596.746	31453.06
597.104	31233.18
597.463	31243.8
597.822	31499.38
598.18	31316.56
598.538	31332.38
598.897	31485.37
599.255	31331.93
599.613	31664.35
599.972	31435.43
600.33	31488.08
600.688	31296.23
601.046	31551.13
601.404	31752.48
601.762	31466.84
602.12	31785.93
602.478	31757.91
602.836	31769.66
603.194	31592.49
603.552	31734.41
603.91	31625.26
604.268	31762.65
604.625	31706.61
604.983	31837.23
605.341	31716.1
605.698	31982.08
606.056	32155.64
606.413	31947.51
606.771	32091.23
607.128	32042.42
607.485	32074.74
607.843	31985.25
608.2	32102.31
608.557	32421.85
608.914	32219.59
609.272	32406.7
609.629	32574.61
609.986	32552.01
610.343	32557.21
610.7	32766.02
611.057	32598.79
611.414	32428.4
611.771	32732.35
612.127	32731.89
612.484	32792.46
612.841	32936.86
613.198	32836.52
613.554	32743.64
613.911	33040.13
614.267	33031.77
614.624	33064.09
614.98	33073.58
615.337	33370.07
615.693	33219.56
616.05	33351.99
616.406	33435.83
616.762	33368.26
617.118	33449.16
617.475	33478.77
617.831	33592.89
618.187	33437.64
618.543	33683.73
618.899	33795.37
619.255	33716.5
619.611	33669.27
619.967	34015.48
620.323	33975.7
620.678	33817.51
621.034	33707.69
621.39	33820
621.746	33984.74
622.101	34209.14
622.457	34029.71
622.812	34199.65
623.168	34145.64
623.523	34185.19
623.879	34219.54
624.234	34087.34
624.589	34278.29
624.945	34210.05
625.3	34290.04
625.655	34266.99
626.01	34274
626.365	34296.6
626.72	34187.9
627.075	34104.29
627.43	34128.69
627.785	34172.08
628.14	34169.14
628.495	34284.17
628.85	34178.41
629.205	34147.45
629.559	34121.01
629.914	34183.15
630.269	34110.16
630.623	34042.59
630.978	33990.17
631.332	34238.07
631.687	34222.25
632.041	34145.87
632.396	34079.43
632.75	33989.04
633.104	34067.45
633.459	33940.22
633.813	33844.63
634.167	33908.36
634.521	33904.97
634.875	33937.74
635.229	33820.68
635.583	33686.67
635.937	33720.79
636.291	33614.81
636.645	33611.64
636.999	33583.62
637.352	33767.57
637.706	33450.52
638.06	33651.64
638.413	33543.17
638.767	33312.44
639.121	33482.83
639.474	33229.96
639.828	33373.23
640.181	33286.23
640.534	33368.94
640.888	33178.89
641.241	33111.77
641.594	33226.8
641.947	33363.52
642.301	32987.03
642.654	33236.51
643.007	33070.19
643.36	33115.84
643.713	33111.32
644.066	33233.12
644.419	33046.69
644.771	32788.84
645.124	32329.87
645.477	32342.3
645.83	32401.05
646.182	32384.33
646.535	32178.24
646.888	32351.79
647.24	32194.28
647.593	32398.34
647.945	32208.29
648.298	32207.16
648.65	32118.8
649.002	31989.99
649.355	31908.41
649.707	31800.39
650.059	31899.6
650.411	32379.36
650.763	32491.22
651.115	32863.19
651.467	32796.75
651.819	32866.13
652.171	32853.7
652.523	32789.75
652.875	32783.42
653.227	32719.69
653.578	33058.89
653.93	32855.73
654.282	32793.13
654.633	32753.81
654.985	32969.63
655.337	32811.67
655.688	32909.52
656.039	32916.75
656.391	32745.9
656.742	32816.64
657.094	32817.99
657.445	32964.2
657.796	32879.01
658.147	32873.58
658.498	33002.62
658.849	32931.89
659.2	32999.46
659.551	32914.94
659.902	33243.29
660.253	32995.39
660.604	33147.02
660.955	32956.52
661.306	33124.65
661.656	33036.74
662.007	33137.31
662.358	33003.75
662.708	33176.85
663.059	33126.23
663.409	33038.33
663.76	33241.94
664.11	33375.94
664.461	33439.67
664.811	33352.44
665.161	33364.87
665.511	33159.68
665.862	33194.03
666.212	33443.97
666.562	33384.31
666.912	33238.55
667.262	33114.93
667.612	33250.07
667.962	33418.66
668.312	33191.54
668.662	33490.74
669.011	33340.92
669.361	33291.2
669.711	33405.1
670.06	33179.79
670.41	33180.92
670.76	33131.43
671.109	33351.99
671.459	33196.74
671.808	33183.41
672.157	33213.46
672.507	33121.04
672.856	33139.11
673.205	33185.22
673.554	33100.7
673.904	33081.49
674.253	33407.81
674.602	33098.44
674.951	32648.05
675.3	32643.08
675.649	33048.27
675.998	33053.69
676.346	33047.37
676.695	33008.27
677.044	32909.97
677.393	32933.47
677.741	33063.18
678.09	33024.99
678.438	32847.14
678.787	32935.96
679.135	32801.27
679.484	32590.65
679.832	32797.88
680.181	32707.94
680.529	32709.07
680.877	32641.05
681.225	32466.82
681.573	32660.48
681.922	32519.02
682.27	32461.84
682.618	32528.74
682.966	32310.44
683.314	32364.67
683.661	32264.56
684.009	32211.68
684.357	31968.52
684.705	31989.54
685.053	32013.04
685.4	31894.85
685.748	31810.34
686.095	31771.24
686.443	31479.05
686.79	31563.34
687.138	31643.11
687.485	31431.59
687.832	31367.41
688.18	31318.82
688.527	31312.04
688.874	31203.8
689.221	31202.89
689.568	31008.78
689.915	30711.38
690.262	30884.71
690.609	30818.27
690.956	30682
691.303	30421.45
691.65	30421.45
691.997	30276.82
692.344	30154.79
692.69	30140.78
693.037	30103.94
693.383	29691.07
693.73	29811.07
694.077	29698.98
694.423	29595.25
694.769	29397.29
695.116	29413.79
695.462	29257.18
695.808	29098.54
696.155	29169.05
696.501	28786.46
696.847	28872.11
697.193	28638.67
697.539	28657.88
697.885	28443.42
698.231	28441.38
698.577	28233.71
698.923	28321.84
699.269	27950.32
699.614	27924.34
699.96	27782.65
700.306	27864.45
700.651	27546.95
700.997	27501.52
701.342	27325.93
701.688	27353.73
702.033	27271.92
702.379	27168.2
702.724	26960.97
703.069	27060.4
703.415	26718.27
703.76	26690.02
704.105	26532.73
704.45	26354.89
704.795	26483.47
705.14	26235.34
705.485	26323.47
705.83	26077.15
706.175	26096.14
706.52	26022.24
706.865	25922.13
707.209	25907.67
707.554	25744.73
707.899	25803.04
708.243	25600.56
708.588	25678.75
708.932	25469.71
709.277	25501.8
709.621	25295.48
709.966	25122.83
710.31	25250.73
710.654	25050.97
710.998	25140.68
711.342	25048.03
711.687	24907.01
712.031	24984.98
712.375	24679
712.719	24758.09
713.063	24714.93
713.407	24749.05
713.75	24648.26
714.094	24618.66
714.438	24603.52
714.782	24560.13
715.125	24447.59
715.469	24575.27
715.812	24371.44
716.156	24383.86
716.499	24469.06
716.843	24504.31
717.186	24217.09
717.53	24509.28
717.873	24413.92
718.216	24288.5
718.559	24351.55
718.902	24063.19
719.246	24203.3
719.589	24107.94
719.932	24060.94
720.275	24160.82
720.617	24106.13
720.96	23991.56
721.303	24088.28
721.646	24082.4
721.989	24003.31
722.331	24081.95
722.674	23990.43
723.016	24005.34
723.359	23928.51
723.701	24043.99
724.044	24028.62
724.386	23803.54
724.729	24151.1
725.071	24060.26
725.413	23939.58
725.755	23914.72
726.097	23895.74
726.439	23951.33
726.782	23850.32
727.124	23979.36
727.465	24006.93
727.807	23910.66
728.149	24013.25
728.491	23873.82
728.833	23952.92
729.175	23969.19
729.516	23915.63
729.858	23924.22
730.199	24053.7
730.541	24051.9
730.882	24115.17
731.224	24041.5
731.565	24028.39
731.906	24091.22
732.248	24103.65
732.589	24063.42
732.93	24102.29
733.271	24153.36
733.612	24198.11
733.953	24299.8
734.294	24271.1
734.635	24193.14
734.976	24388.38
735.317	24331.66
735.658	24286.69
735.999	24322.62
736.339	24408.04
736.68	24504.77
737.021	24448.27
737.361	24582.05
737.702	24758.09
738.042	24643.97
738.383	24680.13
738.723	24819.11
739.063	24838.09
739.404	24871.99
739.744	24889.39
740.084	24899.78
740.424	25016.39
740.764	25083.51
741.104	25170.28
741.444	25034.24
741.784	25160.12
742.124	25409.83
742.464	25394.01
742.804	25472.2
743.143	25502.93
743.483	25614.34
743.823	25744.28
744.162	25704.28
744.502	25894.33
744.841	26046.19
745.181	26172.52
745.52	26110.37
745.86	26443.02
746.199	26335.9
746.538	26467.65
746.877	26763.69
747.216	26806.17
747.556	26990.12
747.895	27226.5
748.234	27190.8
748.573	27284.35
748.911	27445.7
749.25	27543.33
749.589	27703.55
749.928	27872.59
750.267	28057.21
750.605	28080.04
750.944	28424.66
751.283	28429.86
751.621	28666.92
751.96	28719.8
752.298	28863.75
752.636	29194.13
752.975	29294.92
753.313	29357.75
753.651	29669.83
753.989	29716.83
754.327	29941.01
754.666	29997.5
755.004	30206.54
755.342	30486.75
755.679	30690.14
756.017	30773.75
756.355	31005.16
756.693	31117.25
757.031	31446.05
757.368	31351.59
757.706	31591.81
758.044	31704.8
758.381	31908.86
758.719	31913.38
759.056	32173.72
759.394	32333.49
759.731	32286.93
760.068	32464.33
760.405	32779.35
760.743	32700.93
761.08	33001.27
761.417	33045.11
761.754	33205.1
762.091	33302.5
762.428	33277.42
762.765	33466.34
763.102	33578.43
763.438	33729.61
763.775	33522.16
764.112	33806.44
764.449	33932.31
764.785	33947.68
765.122	33954.69
765.458	33968.02
765.795	34104.74
766.131	34279.88
766.467	34228.35
766.804	34110.39
767.14	34159.2
767.476	34275.58
767.812	34210.72
768.148	34443.71
768.485	34398.52
768.821	34378.18
769.157	34270.38
769.492	34443.94
769.828	34434.22
770.164	34201.46
770.5	34122.14
770.836	34415.47
771.171	34370.27
771.507	34237.39
771.842	34219.31
772.178	34258.18
772.513	34066.32
772.849	34102.93
773.184	34189.03
773.519	34162.36
773.855	34035.14
774.19	34109.48
774.525	33862.94
774.86	33967.12
775.195	33981.35
775.53	33934.12
775.865	33731.87
776.2	33610.06
776.535	33471.31
776.87	33528.71
777.205	33440.35
777.539	33323.06
777.874	33533.91
778.209	33163.52
778.543	33201.49
778.878	33023.19
779.212	33166.46
779.547	32896.64
779.881	32843.53
780.215	32723.76
780.55	32847.37
780.884	32577.32
781.218	32515.18
781.552	32573.03
781.886	32462.52
782.22	32349.08
782.554	32057.11
782.888	31983.89
783.222	31938.69
783.556	31929.65
783.889	31713.39
784.223	31687.4
784.557	31627.74
784.89	31678.14
785.224	31457.8
785.557	31288.32
785.891	31202.22
786.224	31291.71
786.558	31287.86
786.891	31064.59
787.224	30886.07
787.557	30953.86
787.891	30661.21
788.224	30653.08
788.557	30494.66
788.89	30625.96
789.223	30516.13
789.556	30214.45
789.888	30355.91
790.221	30197.04
790.554	30098.97
790.887	29981.46
791.219	29939.65
791.552	29828.69
791.884	29782.59
792.217	29630.28
792.549	29633.44
792.882	29434.58
793.214	29308.93
793.546	29380.57
793.879	29241.59
794.211	29015.83
794.543	29195.72
794.875	29092.89
795.207	29025.78
795.539	28910.53
795.871	28923.41
796.203	28788.72
796.535	28459.24
796.867	28519.8
797.198	28354.61
797.53	28358.9
797.862	28190.09
798.193	28355.06
798.525	28180.15
798.856	28276.19
799.188	27864
799.519	27860.16
799.85	27793.04
800.182	27821.51
800.513	27769.54
800.844	27401.41
801.175	27643.44
801.506	27685.7
801.837	27412.94
802.168	27399.38
802.499	27398.02
802.83	27222.66
803.161	27066.28
803.491	27072.38
803.822	27182.66
804.153	26809.56
804.483	26735.22
804.814	26697.02
805.145	26699.51
805.475	26763.91
805.805	26567.08
806.136	26596.01
806.466	26580.64
806.796	26382
807.126	26319.18
807.457	26261.33
807.787	26276.92
808.117	26185.17
808.447	26074.22
808.777	26110.6
809.107	25813.21
809.436	25927.78
809.766	25871.06
810.096	25798.52
810.426	25564.4
810.755	25735.47
811.085	25655.47
811.414	25728.46
811.744	25507.45
812.073	25446.21
812.403	25509.94
812.732	25334.57
813.061	25461.58
813.39	25243.95
813.719	25207.57
814.049	25327.79
814.378	25253.67
814.707	25081.02
815.036	25113.56
815.365	24942.27
815.693	24820.46
816.022	24742.27
816.351	24737.75
816.68	24570.98
817.008	24774.81
817.337	24526.91
817.665	24520.36
817.994	24445.78
818.322	24515.61
818.651	24420.02
818.979	24344.32
819.307	24385.67
819.636	24319.46
819.964	24203.76
820.292	24365.79
820.62	24228.61
820.948	24241.95
821.276	24382.96
821.604	24215.06
821.932	24321.49
822.259	24234.26
822.587	24173.25
822.915	24281.95
823.243	24195.17
823.57	24160.82
823.898	24447.59
824.225	24112.23
824.553	24105.68
824.88	24247.37
825.207	24227.03
825.535	24197.65
825.862	24210.31
826.189	24119.69
826.516	24334.37
826.843	24486.69
827.17	24419.12
827.497	24364.43
827.824	24444.43
828.151	24501.15
828.478	24347.71
828.805	24473.35
829.131	24302.51
829.458	24407.82
829.785	24264.32
830.111	24268.39
830.438	24395.84
830.764	24287.37
831.09	24415.28
831.417	24251.21
831.743	24428.61
832.069	24283.08
832.395	24340.93
832.722	24355.62
833.048	24192.23
833.374	24309.52
833.7	24177.09
834.026	24294.6
834.351	24162.63
834.677	24292.79
835.003	24185.68
835.329	24266.13
835.654	24215.28
835.98	23963.99
836.306	24169.41
836.631	23959.92
836.956	24264.77
837.282	24266.13
837.607	23989.52
837.932	24013.7
838.258	24028.17
838.583	23977.1
838.908	23891.9
839.233	23917.21
839.558	23866.59
839.883	23833.14
840.208	23637.22
840.533	23735.97
840.858	23749.76
841.182	23772.58
841.507	23651.23
841.832	23577.11
842.156	23558.58
842.481	23536.88
842.805	23507.73
843.13	23296.66
843.454	23484
843.778	23360.16
844.103	23283.55
844.427	23264.8
844.751	23302.09
845.075	23210.79
845.399	23134.41
845.723	23028.65
846.047	23034.52
846.371	22871.81
846.695	22801.76
847.019	22776.68
847.343	22600.18
847.666	22479.73
847.99	22466.85
848.313	22280.19
848.637	22269.34
848.96	22299.85
849.284	22254.43
849.607	21950.93
849.931	21967.43
850.254	21775.35
850.577	21682.92
850.9	21658.74
851.223	21644.05
851.546	21593.88
851.869	21391.17
852.192	21460.1
852.515	21177.4
852.838	21216.04
853.161	21155.93
853.483	21053.33
853.806	20890.62
854.129	20809.5
854.451	20911.41
854.774	20746.67
855.096	20803.17
855.419	20664.64
855.741	20498.99
856.063	20515.27
856.385	20454.02
856.708	20415.83
857.03	20263.52
857.352	20251.09
857.674	20299.45
857.996	20142.17
858.318	19963.87
858.64	20004.32
858.961	20046.8
859.283	19931.55
859.605	19872.57
859.926	19867.6
860.248	19688.85
860.57	19636.64
860.891	19711.44
861.212	19601.84
861.534	19541.05
861.855	19468.97
862.176	19500.83
862.498	19507.16
862.819	19419.93
863.14	19324.11
863.461	19331.79
863.782	19304.68
864.103	19288.86
864.424	19236.88
864.745	19210.89
865.065	19101.52
865.386	19064
865.707	19162.31
866.027	19051.12
866.348	19026.04
866.668	19021.52
866.989	19057.68
867.309	18868.53
867.63	18906.49
867.95	18843.9
868.27	18740.4
868.59	18806.84
868.91	18731.81
869.23	18793.28
869.55	18608.65
869.87	18829.89
870.19	18679.61
870.51	18713.96
870.83	18564.36
871.15	18480.74
871.469	18367.3
871.789	18604.81
872.109	18549.22
872.428	18386.51
872.748	18377.47
873.067	18352.61
873.386	18455.43
873.706	18363.91
874.025	18239.62
874.344	18156.46
874.663	18329.56
874.982	18147.64
875.301	18188.55
875.62	18127.53
875.939	18065.84
876.258	18014.77
876.577	17996.01
876.896	18024.71
877.214	17973.86
877.533	18062.67
877.852	17930.93
878.17	17965.95
878.489	17882.34
878.807	17861.78
879.125	17850.48
879.444	17767.77
879.762	17777.94
880.08	17825.84
880.398	17751.5
880.716	17700.65
881.034	17638.28
881.352	17600.99
881.67	17575.46
881.988	17583.37
882.306	17492.29
882.624	17509.02
882.941	17369.36
883.259	17389.92
883.577	17309.7
883.894	17340.43
884.212	17257.95
884.529	17247.1
884.846	17119.2
885.164	17021.12
885.481	17081.46
885.798	17048.01
886.115	17020.22
886.432	16996.26
886.75	16889.15
887.067	16983.16
887.383	16918.75
887.7	16876.27
888.017	16617.29
888.334	16757.85
888.651	16650.73
888.967	16603.96
889.284	16500
889.6	16554.01
889.917	16542.49
890.233	16504.07
890.55	16446.45
890.866	16405.32
891.182	16371.42
891.498	16314.7
891.815	16156.96
892.131	16209.16
892.447	16133.46
892.763	16182.27
893.079	16103.4
893.395	15961.26
893.71	16010.98
894.026	15921.26
894.342	15910.64
894.657	15699.12
894.973	15770.08
895.289	15753.13
895.604	15632.46
895.92	15610.54
896.235	15542.29
896.55	15496.87
896.865	15467.04
897.181	15333.71
897.496	15401.05
897.811	15241.28
898.126	15239.02
898.441	15205.57
898.756	15135.52
899.071	15108.63
899.386	15059.82
899.7	14992.02
900.015	14881.29
900.33	14716.32
900.644	14811.69
900.959	14842.87
901.273	14594.74
901.588	14699.15
901.902	14592.71
902.216	14502.77
902.531	14476.1
902.845	14404.47
903.159	14368.53
903.473	14216.9
903.787	14243.34
904.101	14191.82
904.415	14260.74
904.729	14119.05
905.042	14108.2
905.356	13983.91
905.67	13972.39
905.984	13959.05
906.297	13890.36
906.611	13777.36
906.924	13780.3
907.237	13715.67
907.551	13656.01
907.864	13647.88
908.177	13665.95
908.491	13506.86
908.804	13467.77
909.117	13374.21
909.43	13297.83
909.743	13258.06
910.056	13259.19
910.368	13178.96
910.681	13148.68
910.994	13041.79
911.307	12951.4
911.619	12892.64
911.932	12903.94
912.244	12863.49
912.557	12764.06
912.869	12670.27
913.181	12638.64
913.494	12631.63
913.806	12512.31
914.118	12454.91
914.43	12513.67
914.742	12445.2
915.054	12311.41
915.366	12296.5
915.678	12270.96
915.99	12182.38
916.302	12065.32
916.613	12051.99
916.925	12067.58
917.236	12090.85
917.548	11986.9
917.859	11897.87
918.171	11840.24
918.482	11831.2
918.794	11785.78
919.105	11680.7
919.416	11636.86
919.727	11645.22
920.038	11617.42
920.349	11530.42
920.66	11462.85
920.971	11532
921.282	11441.83
921.593	11322.74
921.903	11282.06
922.214	11272.57
922.525	11128.39
922.835	11145.57
923.146	11058.34
923.456	10973.37
923.767	10978.12
924.077	10876.2
924.387	10957.32
924.697	10835.97
925.008	10846.82
925.318	10765.01
925.628	10804.11
925.938	10703.32
926.248	10573.61
926.558	10450.22
926.867	10511.69
927.177	10485.25
927.487	10440.95
927.796	10358.92
928.106	10324.57
928.416	10352.14
928.725	10271.24
929.034	10252.03
929.344	10220.17
929.653	10194.41
929.962	10101.75
930.271	10042.09
930.581	10054.52
930.89	9988.76
931.199	9880.07
931.508	9880.52
931.817	9889.78
932.125	9813.17
932.434	9727.3
932.743	9608.43
933.051	9581.77
933.36	9659.28
933.669	9590.13
933.977	9573.63
934.286	9529.79
934.594	9424.26
934.902	9403.24
935.21	9414.54
935.519	9363.69
935.827	9307.42
936.135	9231.72
936.443	9261.1
936.751	9158.73
937.059	9157.6
937.367	9033.08
937.674	9098.84
937.982	9095
938.29	8928.9
938.597	9020.2
938.905	8909.92
939.213	8889.13
939.52	8789.92
939.827	8889.13
940.135	8711.73
940.442	8709.93
940.749	8714.67
941.056	8709.47
941.363	8600.32
941.67	8602.58
941.977	8618.86
942.284	8515.36
942.591	8458.86
942.898	8464.06
943.205	8461.57
943.511	8369.82
943.818	8368.92
944.125	8262.93
944.431	8305.42
944.738	8185.19
945.044	8246.66
945.35	8086.44
945.657	8050.06
945.963	8067.91
946.269	8007.57
946.575	8020.9
946.881	7918.99
947.187	7860.01
947.493	7896.61
947.799	7883.96
948.105	7806.9
948.41	7745.21
948.716	7768.93
949.022	7755.6
949.327	7741.14
949.633	7585.44
949.938	7540.47
950.244	7596.06
950.549	7505.89
950.854	7471.54
951.16	7441.26
951.465	7415.05
951.77	7409.4
952.075	7368.94
952.38	7375.05
952.685	7335.05
952.99	7220.25
953.294	7279.91
953.599	7250.98
953.904	7186.8
954.209	7140.02
954.513	7104.09
954.818	7123.53
955.122	7037.88
955.426	7070.2
955.731	6967.6
956.035	6975.06
956.339	6924.89
956.643	6902.74
956.948	6866.58
957.252	6811.45
957.556	6777.32
957.86	6835.63
958.163	6765.34
958.467	6725.35
958.771	6737.32
959.075	6645.8
959.378	6606.48
959.682	6626.59
959.985	6615.07
960.289	6553.37
960.592	6480.61
960.896	6521.96
961.199	6484.67
961.502	6414.17
961.805	6384.79
962.108	6371.68
962.411	6368.07
962.714	6289.88
963.017	6286.94
963.32	6226.38
963.623	6199.48
963.926	6222.08
964.228	6185.7
964.531	6174.4
964.833	6185.02
965.136	6108.64
965.438	6075.87
965.741	5979.15
966.043	6020.05
966.345	5927.85
966.648	5952.26
966.95	5903.67
967.252	5853.73
967.554	5862.77
967.856	5843.34
968.158	5844.24
968.46	5820.51
968.761	5793.17
969.063	5752.49
969.365	5679.72
969.666	5672.27
969.968	5644.24
970.269	5663.9
970.571	5574.64
970.872	5651.25
971.174	5566.51
971.475	5572.16
971.776	5523.12
972.077	5473.63
972.378	5442.67
972.679	5445.61
972.98	5392.95
973.281	5426.4
973.582	5348.66
973.883	5314.99
974.183	5335.33
974.484	5243.8
974.785	5251.26
975.085	5194.09
975.386	5258.04
975.686	5207.87
975.986	5164.71
976.287	5157.03
976.587	5097.37
976.887	5066.41
977.187	5050.14
977.487	5065.73
977.787	5013.3
978.087	5020.08
978.387	4968.56
978.687	4950.48
978.987	4882.23
979.286	4863.25
979.586	4914.32
979.885	4868.45
980.185	4841.55
980.484	4841.55
980.784	4778.73
981.083	4790.71
981.382	4785.74
981.682	4714.1
981.981	4697.38
982.28	4677.26
982.579	4681.33
982.878	4666.19
983.177	4635.01
983.475	4658.51
983.774	4580.32
984.073	4553.43
984.372	4539.64
984.67	4499.87
984.969	4520.43
985.267	4477.04
985.566	4446.76
985.864	4420.1
986.162	4360.44
986.461	4364.28
986.759	4361.79
987.057	4327.44
987.355	4293.32
987.653	4300.1
987.951	4274.34
988.249	4292.64
988.547	4211.97
988.844	4228.91
989.142	4208.8
989.44	4215.81
989.737	4142.81
990.035	4135.58
990.332	4153.89
990.63	4115.7
990.927	4105.08
991.224	4056.72
991.521	4045.87
991.819	4016.72
992.116	4014
992.413	3995.25
992.71	3937.85
993.006	3970.62
993.303	3922.48
993.6	3903.05
993.897	3861.92
994.193	3874.35
994.49	3873.9
994.787	3811.98
995.083	3825.76
995.379	3797.06
995.676	3811.52
995.972	3752.77
996.268	3704.86
996.565	3738.53
996.861	3666.22
997.157	3670.28
997.453	3677.74
997.749	3639.1
998.044	3572.43
998.34	3625.77
998.636	3593.22
998.932	3579.44
999.227	3556.62
999.523	3518.42
999.818	3526.56
1000.114	3494.92
1000.409	3434.58
1000.704	3451.31
1001	3414.7
1001.295	3353.23
1001.59	3412.44
1001.885	3356.62
1002.18	3318.2
1002.475	3324.31
1002.77	3337.19
1003.065	3296.28
1003.359	3270.52
1003.654	3236.17
1003.949	3251.99
1004.243	3214.25
1004.538	3173.8
1004.832	3172.22
1005.127	3144.87
1005.421	3186.46
1005.715	3109.85
1006.009	3101.94
1006.304	3105.78
1006.598	3082.5
1006.892	3083.41
1007.186	3040.02
1007.48	2997.99
1007.773	3002.73
1008.067	2978.33
1008.361	2940.13
1008.655	2947.37
1008.948	2943.07
1009.242	2906.46
1009.535	2884.09
1009.829	2868.5
1010.122	2842.51
1010.415	2860.81
1010.708	2846.58
1011.001	2765.45
1011.295	2755.73
1011.588	2745.34
1011.881	2749.63
1012.173	2748.73
1012.466	2689.52
1012.759	2714.15
1013.052	2715.51
1013.344	2673.25
1013.637	2644.1
1013.93	2640.26
1014.222	2639.58
1014.514	2616.53
1014.807	2576.53
1015.099	2570.88
1015.391	2553.93
1015.683	2511.67
1015.976	2549.41
1016.268	2487.94
1016.56	2482.29
1016.851	2473.71
1017.143	2468.73
1017.435	2419.92
1017.727	2443.88
1018.018	2429.19
1018.31	2380.83
1018.602	2390.09
1018.893	2372.01
1019.185	2324.56
1019.476	2337.66
1019.767	2315.74
1020.058	2306.7
1020.35	2271.68
1020.641	2241.4
1020.932	2209.98
1021.223	2247.05
1021.514	2181.96
1021.804	2193.49
1022.095	2163.21
1022.386	2150.1
1022.677	2155.75
1022.967	2153.49
1023.258	2145.58
1023.548	2080.5
1023.839	2084.79
1024.129	2059.48
1024.419	2053.83
1024.709	2021.29
1025	2016.09
1025.29	2012.25
1025.58	1971.12
1025.87	1999.37
1026.16	1976.09
1026.449	1962.53
1026.739	1952.82
1027.029	1953.95
1027.319	1896.32
1027.608	1920.95
1027.898	1878.92
1028.187	1868.52
1028.477	1881.18
1028.766	1817
1029.055	1840.95
1029.344	1817.9
1029.634	1824.01
1029.923	1768.64
1030.212	1797.79
1030.501	1775.42
1030.79	1753.95
1031.078	1751.47
1031.367	1709.66
1031.656	1708.75
1031.945	1743.56
1032.233	1701.98
1032.522	1679.83
1032.81	1648.19
1033.099	1630.56
1033.387	1661.75
1033.675	1629.89
1033.963	1624.91
1034.251	1634.18
1034.54	1581.53
1034.828	1600.73
1035.116	1575.42
1035.403	1583.56
1035.691	1590.79
1035.979	1534.52
1036.267	1532.49
1036.554	1531.36
1036.842	1487.07
1037.129	1493.84
1037.417	1470.34
1037.704	1461.76
1037.992	1480.51
1038.279	1454.52
1038.566	1432.6
1038.853	1432.6
1039.14	1432.6
