Data from 291_FLMS001491_001.txt Node
Date: Thu Apr 19 16:45:34 BST 2018
User: hsy
Spectrometer: FLMS00149
Trigger mode: 0
Integration Time (sec): 1.000000E-2
Scans to average: 10
Electric dark correction enabled: true
Nonlinearity correction enabled: false
Boxcar width: 0
XAxis mode: Wavelengths
Number of Pixels in Spectrum: 2048
>>>>>Begin Spectral Data<<<<<
341.393	-22.73
341.776	-22.73
342.16	-22.73
342.543	-58.88
342.927	-71.09
343.31	-79.9
343.693	-64.08
344.077	-59.11
344.46	-54.81
344.843	-43.29
345.226	-51.88
345.61	-29.73
345.993	-50.97
346.376	17.27
346.759	23.15
347.142	18.18
347.525	43.71
347.908	51.85
348.291	81.45
348.674	83.49
349.057	114.67
349.44	128.68
349.823	137.95
350.206	168.68
350.588	222.01
350.971	254.33
351.354	248.23
351.737	246.42
352.119	290.26
352.502	283.93
352.884	315.12
353.267	310.83
353.65	300.88
354.032	324.61
354.414	332.07
354.797	332.52
355.179	334.33
355.562	341.11
355.944	357.15
356.326	353.99
356.709	374.1
357.091	380.88
357.473	368.22
357.855	363.93
358.238	354.89
358.62	380.65
359.002	372.52
359.384	358.51
359.766	359.64
360.148	380.43
360.53	356.25
360.912	375.46
361.294	381.78
361.676	368.45
362.057	378.85
362.439	370.48
362.821	377.72
363.203	390.82
363.584	350.82
363.966	367.77
364.348	375.23
364.729	363.03
365.111	369.13
365.493	366.19
365.874	341.33
366.256	357.6
366.637	341.33
367.019	351.73
367.4	353.76
367.781	356.02
368.163	346.76
368.544	364.84
368.925	365.96
369.306	372.29
369.688	368.68
370.069	355.57
370.45	360.77
370.831	368.68
371.212	334.1
371.593	368
371.974	371.16
372.355	378.62
372.736	373.87
373.117	359.64
373.498	374.1
373.879	340.2
374.26	354.67
374.641	357.15
375.021	366.87
375.402	366.87
375.783	376.13
376.163	384.27
376.544	399.41
376.925	369.35
377.305	382.69
377.686	382.01
378.066	386.53
378.447	373.65
378.827	390.6
379.208	401.22
379.588	386.08
379.968	409.81
380.349	406.42
380.729	392.4
381.109	389.02
381.489	402.35
381.87	403.03
382.25	417.72
382.63	416.13
383.01	410.94
383.39	409.81
383.77	410.26
384.15	413.87
384.53	406.42
384.91	426.98
385.29	425.62
385.67	412.74
386.049	449.35
386.429	438.73
386.809	436.92
387.189	437.83
387.568	460.65
387.948	443.03
388.328	458.39
388.707	477.83
389.087	467.66
389.466	489.8
389.846	485.74
390.225	466.08
390.605	478.28
390.984	477.37
391.363	471.5
391.743	507.2
392.122	491.61
392.501	497.71
392.881	494.1
393.26	527.77
393.639	503.81
394.018	526.41
394.397	549.24
394.776	526.86
395.155	556.02
395.534	536.58
395.913	544.72
396.292	548.33
396.671	554.21
397.05	570.25
397.429	562.34
397.808	557.37
398.186	585.39
398.565	587.65
398.944	583.59
399.323	588.11
399.701	601.44
400.08	581.55
400.458	597.6
400.837	608.22
401.215	609.57
401.594	625.39
401.972	627.88
402.351	635.11
402.729	626.98
403.107	645.28
403.486	664.49
403.864	642.12
404.242	668.1
404.62	696.8
404.999	675.56
405.377	708.33
405.755	712.62
406.133	716.69
406.511	717.37
406.889	724.37
407.267	729.35
407.645	778.61
408.023	786.07
408.401	814.54
408.779	824.71
409.156	836.91
409.534	811.6
409.912	836.69
410.29	877.82
410.667	882.34
411.045	921.66
411.422	876.46
411.8	895.22
412.178	944.71
412.555	956.01
412.933	991.26
413.31	957.59
413.687	1010.02
414.065	1019.51
414.442	1038.94
414.819	1056.57
415.197	1076
415.574	1116.23
415.951	1101.99
416.328	1137.24
416.705	1128.2
417.082	1148.77
417.46	1166.62
417.837	1181.08
418.214	1177.47
418.591	1213.63
418.967	1209.56
419.344	1237.81
419.721	1252.27
420.098	1281.42
420.475	1297.47
420.852	1323.68
421.228	1329.78
421.605	1353.28
421.982	1361.87
422.358	1371.81
422.735	1411.81
423.111	1423.11
423.488	1433.96
423.864	1465.15
424.241	1475.77
424.617	1504.69
424.994	1530.45
425.37	1524.58
425.746	1550.57
426.123	1589.44
426.499	1596.89
426.875	1622.88
427.251	1649.1
427.627	1678.7
428.003	1698.13
428.379	1673.5
428.756	1717.34
429.132	1772.48
429.507	1755.31
429.883	1807.96
430.259	1827.4
430.635	1848.41
431.011	1832.82
431.387	1911.91
431.763	1986.04
432.138	1978.13
432.514	1973.83
432.89	1979.71
433.265	2080.5
433.641	2132.25
434.016	2112.13
434.392	2174.96
434.767	2243.43
435.143	2227.16
435.518	2233.03
435.894	2289.08
436.269	2318.68
436.644	2348.74
437.02	2379.25
437.395	2376.08
437.77	2418.34
438.145	2452.46
438.52	2492.69
438.895	2539.92
439.271	2564.78
439.646	2623.53
440.021	2644.1
440.395	2660.37
440.77	2633.48
441.145	2680.03
441.52	2715.51
441.895	2718.22
442.27	2783.53
442.645	2729.29
443.019	2801.61
443.394	2819.01
443.769	2847.03
444.143	2852.23
444.518	2903.07
444.892	2843.64
445.267	2922.06
445.641	2958.44
446.016	3027.14
446.39	2996.86
446.764	3044.31
447.139	3045.67
447.513	3088.83
447.887	3107.81
448.262	3126.34
448.636	3142.16
449.01	3191.2
449.384	3214.93
449.758	3286.11
450.132	3265.1
450.506	3319.11
450.88	3316.62
451.254	3344.19
451.628	3405.66
452.002	3462.15
452.376	3497.18
452.75	3524.3
453.123	3565.65
453.497	3612.21
453.871	3610.85
454.244	3689.72
454.618	3734.69
454.992	3800.45
455.365	3814.91
455.739	3952.54
456.112	3934.91
456.486	3970.16
456.859	4008.81
457.232	4109.37
457.606	4166.99
457.979	4182.14
458.352	4296.94
458.725	4298.29
459.099	4363.37
459.472	4417.84
459.845	4518.85
460.218	4510.94
460.591	4599.3
460.964	4656.25
461.337	4689.47
461.71	4804.49
462.083	4886.3
462.456	4859.63
462.829	4916.35
463.201	4986.18
463.574	5022.11
463.947	5122.45
464.32	5251.94
464.692	5219.85
465.065	5265.5
465.438	5339.39
465.81	5487.86
466.183	5443.12
466.555	5586.62
466.928	5684.47
467.3	5653.06
467.672	5805.6
468.045	5820.74
468.417	5867.97
468.789	5882.43
469.161	6027.29
469.534	6089.66
469.906	6187.28
470.278	6229.31
470.65	6308.18
471.022	6450.55
471.394	6548.85
471.766	6600.15
472.138	6627.04
472.51	6806.02
472.882	6879.47
473.253	7023.64
473.625	7099.12
473.997	7213.24
474.369	7272.45
474.74	7299.12
475.112	7539.56
475.484	7602.61
475.855	7788.37
476.227	7781.14
476.598	8077.17
476.97	8057.97
477.341	8200.34
477.713	8403.49
478.084	8399.88
478.455	8660.89
478.827	8733.43
479.198	8977.49
479.569	9008.45
479.94	9255.67
480.311	9296.13
480.682	9476.69
481.053	9668.32
481.424	9834.42
481.795	10006.16
482.166	10084.81
482.537	10260.62
482.908	10437.79
483.279	10514.4
483.65	10693.6
484.021	10940.83
484.391	10981.51
484.762	11200.93
485.133	11368.39
485.503	11512.56
485.874	11731.54
486.244	11819.9
486.615	12070.52
486.985	12151.87
487.356	12431.18
487.726	12411.3
488.097	12743.27
488.467	12763.83
488.837	13039.53
489.207	13172.41
489.578	13403.36
489.948	13560.42
490.318	13739.85
490.688	13703.47
491.058	14003.12
491.428	14156.11
491.798	14246.73
492.168	14618.7
492.538	14617.12
492.908	14819.14
493.278	14980.27
493.648	15028.63
494.017	15213.03
494.387	15203.09
494.757	15432.46
495.126	15605.79
495.496	15662.96
495.866	15797.42
496.235	15851.89
496.605	16066.34
496.974	16081.26
497.344	16324.19
497.713	16332.1
498.082	16434.92
498.452	16592.2
498.821	16748.81
499.19	16678.53
499.559	16885.3
499.928	16906.55
500.298	17017.28
500.667	17087.79
501.036	17097.05
501.405	17219.31
501.774	17382.24
502.143	17405.29
502.512	17504.95
502.88	17700.42
503.249	17667.2
503.618	17875.34
503.987	17864.49
504.356	17901.1
504.724	18023.13
505.093	18107.87
505.462	18212.28
505.83	18266.51
506.199	18345.83
506.567	18577.01
506.936	18626.73
507.304	18709.44
507.672	18722.77
508.041	18874.86
508.409	19019.26
508.777	19167.28
509.145	19264.23
509.514	19208.41
509.882	19357.33
510.25	19377.44
510.618	19555.06
510.986	19535.18
511.354	19581.05
511.722	19836.41
512.09	20003.87
512.458	19872.57
512.826	20138.1
513.193	20207.48
513.561	20239.11
513.929	20420.35
514.297	20534.7
514.664	20653.79
515.032	20810.17
515.4	20864.18
515.767	21050.84
516.135	21112.09
516.502	20861.02
516.869	21294.91
517.237	21355.02
517.604	21164.74
517.972	21485.64
518.339	21627.1
518.706	21658.96
519.073	21799.3
519.44	21916.81
519.808	22021.67
520.175	22008.79
520.542	22348.66
520.909	22341.21
521.276	22427.98
521.643	22725.15
522.009	22725.38
522.376	22948.42
522.743	22948.65
523.11	23056.67
523.477	23394.96
523.843	23378.02
524.21	23680.61
524.577	23757.44
524.943	23852.81
525.31	23875.18
525.676	24205.34
526.043	24320.59
526.409	24359.91
526.776	24616.85
527.142	24682.16
527.508	24776.62
527.874	24967.58
528.241	24991.98
528.607	25038.54
528.973	25145.43
529.339	25185.43
529.705	25531.4
530.071	25598.3
530.437	25692.98
530.803	25711.97
531.169	25846.42
531.535	25940.43
531.901	25898.4
532.267	26092.97
532.632	26092.29
532.998	26340.2
533.364	26335.68
533.73	26317.82
534.095	26583.58
534.461	26511.94
534.826	26614.99
535.192	26675.33
535.557	26720.98
535.923	26680.75
536.288	26784.93
536.653	26750.58
537.019	26770.92
537.384	26870.13
537.749	26955.32
538.114	27025.6
538.479	26814.99
538.845	26932.72
539.21	26789.68
539.575	26905.15
539.94	26980.18
540.305	26994.19
540.67	26920.29
541.034	26919.17
541.399	26943.8
541.764	26971.37
542.129	26923.68
542.494	27145.37
542.858	27029.44
543.223	27072.16
543.587	27155.09
543.952	27004.59
544.316	27065.15
544.681	26855.89
545.045	27123.45
545.41	27089.56
545.774	26983.57
546.138	26935.44
546.503	26974.08
546.867	26932.05
547.231	26982.21
547.595	26935.89
547.959	27108.76
548.324	27037.58
548.688	27042.55
549.052	27008.43
549.416	26946.73
549.779	26899.05
550.143	26942.44
550.507	26983.12
550.871	26958.03
551.235	26907.41
551.599	27007.75
551.962	27044.13
552.326	27056.11
552.689	26903.12
553.053	26853.86
553.417	26884.14
553.78	27009.11
554.143	26976.79
554.507	26999.16
554.87	27041.42
555.234	27133.4
555.597	26896.57
555.96	27018.37
556.323	27049.33
556.686	26995.32
557.05	27171.14
557.413	27056.34
557.776	27085.94
558.139	27142.66
558.502	27120.74
558.865	27072.38
559.228	27303.34
559.59	27261.75
559.953	27251.81
560.316	27482.99
560.679	27293.84
561.041	27420.62
561.404	27517.57
561.767	27582.65
562.129	27354.63
562.492	27705.59
562.854	27574.06
563.217	27541.07
563.579	27500.62
563.941	27886.6
564.304	27755.98
564.666	27997.55
565.028	27851.8
565.39	27862.87
565.753	28000.72
566.115	28085.91
566.477	28247.94
566.839	28225.57
567.201	28365.45
567.563	28272.12
567.925	28403.65
568.287	28362.29
568.648	28388.28
569.01	28450.88
569.372	28668.72
569.734	28624.2
570.095	28664.43
570.457	28889.51
570.819	28797.76
571.18	28735.16
571.542	28928.15
571.903	28910.53
572.265	28995.95
572.626	29089.5
572.987	29184.64
573.349	29178.09
573.71	29305.32
574.071	29339.67
574.432	29427.8
574.794	29514.35
575.155	29533.79
575.516	29385.99
575.877	29682.26
576.238	29603.16
576.599	29619.43
576.96	29701.01
577.32	29666.44
577.681	29919.54
578.042	29841.57
578.403	29837.51
578.763	29952.98
579.124	29956.37
579.485	30105.52
579.845	30150.72
580.206	29968.8
580.566	29975.58
580.927	30055.35
581.287	30121.11
581.648	30073.88
582.008	30301.45
582.368	30216.25
582.728	30335.12
583.089	30235.24
583.449	30288.57
583.809	30372.63
584.169	30457.6
584.529	30336.48
584.889	30550.26
585.249	30422.12
585.609	30343.48
585.969	30559.97
586.329	30333.76
586.688	30481.78
587.048	30539.63
587.408	30414.89
587.768	30518.62
588.127	30690.37
588.487	30512.29
588.846	30692.85
589.206	30424.38
589.565	30528.11
589.925	30616.69
590.284	30655.56
590.643	30663.93
591.003	30655.11
591.362	30933.3
591.721	30912.05
592.08	30778.27
592.44	30774.66
592.799	30688.33
593.158	30811.49
593.517	30767.65
593.876	30835.45
594.235	30924.94
594.593	30905.73
594.952	30917.48
595.311	30773.53
595.67	30792.96
596.029	31022.56
596.387	31081.32
596.746	31054.2
597.104	30915.44
597.463	30948.66
597.822	31136.46
598.18	31020.3
598.538	31066.4
598.897	31219.39
599.255	31036.12
599.613	31387.52
599.972	31113.41
600.33	31314.76
600.688	31164.7
601.046	31337.13
601.404	31548.65
601.762	31365.15
602.12	31519.95
602.478	31356.11
602.836	31601.98
603.194	31261.42
603.552	31404.47
603.91	31361.53
604.268	31552.94
604.625	31515.43
604.983	31728.76
605.341	31505.26
605.698	31766.72
606.056	31842.2
606.413	31785.48
606.771	31999.71
607.128	31866.15
607.485	31805.82
607.843	31843.33
608.2	31976.21
608.557	32068.18
608.914	32116.54
609.272	32243.32
609.629	32189.99
609.986	32362.64
610.343	32257.1
610.7	32615.51
611.057	32330.32
611.414	32350.66
611.771	32555.4
612.127	32544.1
612.484	32707.04
612.841	32776.64
613.198	32594.95
613.554	32516.98
613.911	32787.26
614.267	32825.68
614.624	32799.69
614.98	32964.43
615.337	33103.64
615.693	32999.23
616.05	33177.98
616.406	33326.23
616.762	33162.62
617.118	33138.44
617.475	33028.83
617.831	33312.67
618.187	33314.48
618.543	33350.63
618.899	33502.95
619.255	33479.22
619.611	33456.17
619.967	33653.23
620.323	33689.16
620.678	33629.95
621.034	33676.5
621.39	33656.62
621.746	33521.03
622.101	34046.21
622.457	33678.31
622.812	33968.25
623.168	34015.7
623.523	33822.03
623.879	34036.72
624.234	33897.96
624.589	34017.28
624.945	34035.36
625.3	33991.75
625.655	34086.21
626.01	34091.86
626.365	34100.22
626.72	33960.11
627.075	33980.22
627.43	34137.96
627.785	34101.35
628.14	34000.11
628.495	33948.58
628.85	34063.84
629.205	33881.47
629.559	34098.41
629.914	34013.89
630.269	34040.56
630.623	33850.06
630.978	33825.65
631.332	33928.92
631.687	33892.99
632.041	33810.74
632.396	33866.55
632.75	33876.95
633.104	33826.1
633.459	33752.43
633.813	33847.12
634.167	33743.17
634.521	33756.27
634.875	33800.11
635.229	33635.82
635.583	33439.22
635.937	33616.16
636.291	33465.21
636.645	33532.1
636.999	33412.55
637.352	33456.39
637.706	33224.99
638.06	33365.32
638.413	33275.16
638.767	33200.13
639.121	33316.96
639.474	33158.32
639.828	33093.69
640.181	33038.1
640.534	33124.65
640.888	33096.4
641.241	32929.4
641.594	33060.7
641.947	33037.87
642.301	32924.43
642.654	33060.25
643.007	32810.99
643.36	33026.12
643.713	33066.57
644.066	33131.43
644.419	32924.88
644.771	32524.44
645.124	32341.85
645.477	32297.55
645.83	32191.79
646.182	32135.98
646.535	32035.64
646.888	32075.87
647.24	32029.99
647.593	32100.5
647.945	32161.74
648.298	31990.67
648.65	31838.13
649.002	31834.74
649.355	31779.15
649.707	31786.38
650.059	31764.91
650.411	32126.94
650.763	32346.59
651.115	32883.53
651.467	32652.12
651.819	32755.17
652.171	32643.08
652.523	32581.84
652.875	32750.2
653.227	32412.13
653.578	32801.27
653.93	32574.16
654.282	32612.57
654.633	32476.08
654.985	32657.77
655.337	32642.86
655.688	32773.7
656.039	32868.16
656.391	32501.84
656.742	32634.72
657.094	32725.79
657.445	32790.2
657.796	32744.55
658.147	32658.22
658.498	32774.83
658.849	32822.51
659.2	32658
659.551	32664.78
659.902	33008.27
660.253	32765.34
660.604	32862.74
660.955	32793.13
661.306	33039.68
661.656	32837.2
662.007	32906.35
662.358	32873.81
662.708	32912.91
663.059	32987.48
663.409	32851.21
663.76	33116.52
664.11	33027.71
664.461	33018.44
664.811	33041.26
665.161	33160.13
665.511	33025.9
665.862	33184.76
666.212	33027.71
666.562	33224.99
666.912	33097.99
667.262	33102.51
667.612	33060.25
667.962	33149.06
668.312	33017.76
668.662	33289.39
669.011	33215.72
669.361	33202.39
669.711	33177.98
670.06	32945.9
670.41	33116.06
670.76	33063.64
671.109	33211.65
671.459	33046.91
671.808	33118.1
672.157	33051.21
672.507	32911.78
672.856	33030.87
673.205	32918.1
673.554	33071.32
673.904	32941.38
674.253	33101.6
674.602	32856.86
674.951	32624.33
675.3	32240.16
675.649	32860.48
675.998	32863.87
676.346	32779.12
676.695	32874.71
677.044	32649.18
677.393	32735.06
677.741	32781.84
678.09	32639.47
678.438	32617.77
678.787	32706.36
679.135	32761.95
679.484	32340.94
679.832	32368.74
680.181	32400.83
680.529	32488.06
680.877	32300.72
681.225	32321.73
681.573	32408.51
681.922	32271.11
682.27	32199.93
682.618	32275.86
682.966	32015.3
683.314	32163.09
683.661	32070.44
684.009	31899.83
684.357	31781.86
684.705	31750.9
685.053	31756.55
685.4	31567.18
685.748	31573.51
686.095	31662.09
686.443	31345.94
686.79	31411.93
687.138	31342.1
687.485	31174.19
687.832	31173.74
688.18	31150.01
688.527	31000.41
688.874	30951.83
689.221	30920.19
689.568	30605.85
689.915	30626.64
690.262	30667.77
690.609	30585.74
690.956	30397.49
691.303	30295.8
691.65	30308.45
691.997	29989.82
692.344	30006.32
692.69	29969.25
693.037	29874.34
693.383	29532.43
693.73	29607.23
694.077	29458.76
694.423	29372.43
694.769	29214.02
695.116	29122.72
695.462	29101.93
695.808	28886.8
696.155	28997.75
696.501	28670.31
696.847	28729.74
697.193	28489.07
697.539	28459.46
697.885	28123.2
698.231	28189.64
698.577	28059.25
698.923	27973.83
699.269	27714.62
699.614	27615.87
699.96	27503.56
700.306	27616.1
700.651	27335.43
700.997	27304.24
701.342	27222.66
701.688	26960.75
702.033	26993.51
702.379	27020.63
702.724	26822.9
703.069	26873.97
703.415	26528.89
703.76	26489.35
704.105	26447.54
704.45	26332.97
704.795	26208.22
705.14	26046.42
705.485	26119.86
705.83	25882.36
706.175	25965.52
706.52	25889.14
706.865	25796.71
707.209	25639.42
707.554	25604.4
707.899	25590.61
708.243	25377.96
708.588	25418.87
708.932	25209.83
709.277	25229.49
709.621	25116.27
709.966	25028.82
710.31	25118.31
710.654	24864.98
710.998	24866.11
711.342	24852.1
711.687	24775.49
712.031	24724.42
712.375	24633.8
712.719	24535.5
713.063	24581.6
713.407	24714.7
713.75	24485.1
714.094	24430.64
714.438	24347.93
714.782	24410.3
715.125	24226.13
715.469	24423.19
715.812	24256.64
716.156	24080.37
716.499	24197.43
716.843	24215.96
717.186	24050.99
717.53	24093.48
717.873	24205.79
718.216	24067.94
718.559	24070.2
718.902	23900.71
719.246	23975.74
719.589	23924.89
719.932	23822.52
720.275	23845.12
720.617	23887.61
720.96	23790.89
721.303	23942.52
721.646	23928.74
721.989	23796.08
722.331	23789.3
722.674	23836.31
723.016	23807.83
723.359	23738.91
723.701	23846.7
724.044	23781.62
724.386	23709.08
724.729	23838.79
725.071	23785.91
725.413	23751.79
725.755	23737.78
726.097	23737.78
726.439	23621.4
726.782	23722.19
727.124	23845.35
727.465	23814.84
727.807	23739.81
728.149	23818.23
728.491	23669.31
728.833	23736.42
729.175	23808.51
729.516	23820.04
729.858	23819.36
730.199	23826.82
730.541	23853.71
730.882	23905.91
731.224	24024.55
731.565	23920.6
731.906	23940.94
732.248	23911.79
732.589	23904.1
732.93	23884.22
733.271	23916.76
733.612	23879.25
733.953	24126.47
734.294	24006.25
734.635	23941.39
734.976	24160.14
735.317	24011.9
735.658	24145.23
735.999	24139.8
736.339	24221.38
736.68	24261.61
737.021	24299.12
737.361	24267.94
737.702	24503.86
738.042	24385.9
738.383	24592.9
738.723	24648.49
739.063	24601.26
739.404	24686.91
739.744	24853.23
740.084	24751.54
740.424	24805.77
740.764	24812.78
741.104	25095.71
741.444	25064.98
741.784	25021.59
742.124	25166.44
742.464	25275.82
742.804	25251.86
743.143	25268.81
743.483	25560.78
743.823	25505.42
744.162	25652.76
744.502	25778.86
744.841	25805.75
745.181	26112.63
745.52	26023.14
745.86	26336.36
746.199	26325.96
746.538	26471.72
746.877	26643.69
747.216	26800.07
747.556	26905.15
747.895	27001.65
748.234	27090.46
748.573	27275.77
748.911	27328.65
749.25	27524.12
749.589	27522.99
749.928	27816.32
750.267	27941.06
750.605	27998.46
750.944	28317.55
751.283	28489.07
751.621	28497.43
751.96	28621.72
752.298	28922.28
752.636	28988.72
752.975	29080.01
753.313	29361.81
753.651	29686.32
753.989	29618.3
754.327	29855.36
754.666	29849.94
755.004	30338.06
755.342	30475.46
755.679	30636.13
756.017	30708.22
756.355	31012.62
756.693	30952.51
757.031	31360.4
757.368	31472.94
757.706	31491.7
758.044	31719.72
758.381	31965.59
758.719	32061.63
759.056	32253.04
759.394	32357.44
759.731	32465.69
760.068	32615.51
760.405	32745.68
760.743	32819.12
761.08	32953.81
761.417	33167.81
761.754	33199
762.091	33351.76
762.428	33448.26
762.765	33399.22
763.102	33718.99
763.438	33614.36
763.775	33706.33
764.112	33896.83
764.449	33989.94
764.785	34029.49
765.122	33949.71
765.458	34026.1
765.795	34261.57
766.131	34274.23
766.467	34352.42
766.804	34337.95
767.14	34324.85
767.476	34326.65
767.812	34449.14
768.148	34567.1
768.485	34544.73
768.821	34356.48
769.157	34454.33
769.492	34539.3
769.828	34583.6
770.164	34330.72
770.5	34430.83
770.836	34519.87
771.171	34412.3
771.507	34451.17
771.842	34293.21
772.178	34345.64
772.513	34446.42
772.849	34269.25
773.184	34326.43
773.519	34338.41
773.855	34251.18
774.19	34201.91
774.525	34188.35
774.86	34116.04
775.195	34097.96
775.53	33929.83
775.865	33825.65
776.2	33793.33
776.535	33552.21
776.87	33680.34
777.205	33495.72
777.539	33520.57
777.874	33537.07
778.209	33357.19
778.543	33350.63
778.878	33270.86
779.212	33281.94
779.547	32991.32
779.881	33133.24
780.215	32929.18
780.55	32949.74
780.884	32777.77
781.218	32794.49
781.552	32739.58
781.886	32641.73
782.22	32376.42
782.554	32425.23
782.888	32172.59
783.222	32170.55
783.556	31931.24
783.889	31978.02
784.223	31838.36
784.557	31788.19
784.89	31917.68
785.224	31744.57
785.557	31429.78
785.891	31454.87
786.224	31495.54
786.558	31374.19
786.891	31291.71
787.224	31070.92
787.557	30873.86
787.891	30943.24
788.224	30896.46
788.557	30779.63
788.89	30719.07
789.223	30729.01
789.556	30453.31
789.888	30517.26
790.221	30372.86
790.554	30253.77
790.887	30186.2
791.219	30029.14
791.552	29941.23
791.884	29972.19
792.217	29818.07
792.549	29704.63
792.882	29448.59
793.214	29518.64
793.546	29487.46
793.879	29374.92
794.211	29103.29
794.543	29334.02
794.875	29186
795.207	29122.27
795.539	29069.84
795.871	29058.32
796.203	28899.9
796.535	28713.02
796.867	28675.28
797.198	28599.12
797.53	28479.58
797.862	28362.74
798.193	28378.56
798.525	28186.93
798.856	28391.67
799.188	27951.45
799.519	27926.37
799.85	27757.56
800.182	27951
800.513	27981.28
800.844	27432.6
801.175	27745.58
801.506	27716.66
801.837	27631.91
802.168	27650.67
802.499	27563.89
802.83	27287.52
803.161	27249.1
803.491	27195.09
803.822	27250
804.153	27053.85
804.483	26957.13
804.814	26801.2
805.145	26857.25
805.475	26933.4
805.805	26741.09
806.136	26834.87
806.466	26576.8
806.796	26625.84
807.126	26439.86
807.457	26415.9
807.787	26387.2
808.117	26349.46
808.447	26182.91
808.777	26281.44
809.107	26037.15
809.436	26075.57
809.766	25972.07
810.096	26097.72
810.426	25770.72
810.755	25911.51
811.085	25814.34
811.414	25864.5
811.744	25656.83
812.073	25684.62
812.403	25664.28
812.732	25563.72
813.061	25535.92
813.39	25325.08
813.719	25394.46
814.049	25396.27
814.378	25385.42
814.707	25199.66
815.036	25260.23
815.365	25096.61
815.693	24969.84
816.022	25001.25
816.351	24878.31
816.68	24740.69
817.008	24996.5
817.337	24672.67
817.665	24717.19
817.994	24635.61
818.322	24760.35
818.651	24635.84
818.979	24561.26
819.307	24486.91
819.636	24578.66
819.964	24289.4
820.292	24592.67
820.62	24402.17
820.948	24485.33
821.276	24497.31
821.604	24354.26
821.932	24481.04
822.259	24441.26
822.587	24448.5
822.915	24308.16
823.243	24444.43
823.57	24149.29
823.898	24359.91
824.225	24377.76
824.553	24436.74
824.88	24428.61
825.207	24461.83
825.535	24322.85
825.862	24472.9
826.189	24387.25
826.516	24630.64
826.843	24536.85
827.17	24650.75
827.497	24618.43
827.824	24664.76
828.151	24640.81
828.478	24448.95
828.805	24692.56
829.131	24585.67
829.458	24483.3
829.785	24322.62
830.111	24434.26
830.438	24595.38
830.764	24552.45
831.09	24634.48
831.417	24441.94
831.743	24487.36
832.069	24553.8
832.395	24394.26
832.722	24524.88
833.048	24490.98
833.374	24470.64
833.7	24361.27
834.026	24481.26
834.351	24361.27
834.677	24400.59
835.003	24381.15
835.329	24356.29
835.654	24454.37
835.98	24275.17
836.306	24483.3
836.631	24219.35
836.956	24356.52
837.282	24378.89
837.607	24312.45
837.932	24288.27
838.258	24223.87
838.583	24162.18
838.908	24061.16
839.233	24064.55
839.558	24016.64
839.883	24011.9
840.208	23877.21
840.533	23978.45
840.858	23832.01
841.182	23932.58
841.507	23900.26
841.832	23667.05
842.156	23809.64
842.481	23738.91
842.805	23575.75
843.13	23531.23
843.454	23570.33
843.778	23492.59
844.103	23528.29
844.427	23350.22
844.751	23483.55
845.075	23340.73
845.399	23303.67
845.723	23166.04
846.047	23216.21
846.371	23007.86
846.695	22971.02
847.019	22889.67
847.343	22689.22
847.666	22770.57
847.99	22552.95
848.313	22437.93
848.637	22551.6
848.96	22408.78
849.284	22409.23
849.607	22122.23
849.931	22177.82
850.254	22035.9
850.577	21906.19
850.9	21716.82
851.223	21794.78
851.546	21691.96
851.869	21551.4
852.192	21575.35
852.515	21386.88
852.838	21304.4
853.161	21408.35
853.483	21185.53
853.806	21055.36
854.129	21153.44
854.451	20983.73
854.774	20880.91
855.096	20798.87
855.419	20759.1
855.741	20695.15
856.063	20603.62
856.385	20606.11
856.708	20529.05
857.03	20479.79
857.352	20488.37
857.674	20419.67
857.996	20327.47
858.318	20183.97
858.64	20187.82
858.961	20147.14
859.283	19989.63
859.605	19909.41
859.926	19997.77
860.248	19846.81
860.57	19835.06
860.891	19790.54
861.212	19762.52
861.534	19774.95
861.855	19653.59
862.176	19710.32
862.498	19571.34
862.819	19663.54
863.14	19600.26
863.461	19534.05
863.782	19405.24
864.103	19412.7
864.424	19389.42
864.745	19421.28
865.065	19302.87
865.386	19224.9
865.707	19269.87
866.027	19216.99
866.348	19217.45
866.668	19162.76
866.989	19125.02
867.309	18942.2
867.63	18930.22
867.95	18899.49
868.27	18855.65
868.59	18934.97
868.91	18893.39
869.23	18950.56
869.55	18712.38
869.87	18867.63
870.19	18704.24
870.51	18685.26
870.83	18745.82
871.15	18548.54
871.469	18668.76
871.789	18694.3
872.109	18594.64
872.428	18440.52
872.748	18563.45
873.067	18558.03
873.386	18557.35
873.706	18425.6
874.025	18352.16
874.344	18389.45
874.663	18292.95
874.982	18363.23
875.301	18266.74
875.62	18195.33
875.939	18145.16
876.258	18182.9
876.577	18179.06
876.896	18058.16
877.214	18057.7
877.533	18026.97
877.852	18043.01
878.17	18057.03
878.489	17937.25
878.807	17920.31
879.125	17904.94
879.444	17898.16
879.762	17907.42
880.08	17919.4
880.398	17746.07
880.716	17838.5
881.034	17807.09
881.352	17777.71
881.67	17572.52
881.988	17608.68
882.306	17558.06
882.624	17592.63
882.941	17444.61
883.259	17455.01
883.577	17521.67
883.894	17344.73
884.212	17344.5
884.529	17393.09
884.846	17247.1
885.164	17135.92
885.481	17075.81
885.798	17146.77
886.115	16988.13
886.432	17191.06
886.75	17110.61
887.067	17096.82
887.383	17023.38
887.7	17040.1
888.017	16758.98
888.334	16801.24
888.651	16735.93
888.967	16728.47
889.284	16700
889.6	16664.07
889.917	16555.37
890.233	16588.82
890.55	16518.31
890.866	16451.42
891.182	16381.59
891.498	16381.59
891.815	16313.12
892.131	16204.87
892.447	16219.11
892.763	16218.2
893.079	16103.86
893.395	16175.27
893.71	16051.88
894.026	15973.92
894.342	15911.77
894.657	15858.44
894.973	15769.18
895.289	15847.82
895.604	15790.19
895.92	15588.84
896.235	15685.34
896.55	15661.38
896.865	15550.2
897.181	15529.41
897.496	15541.39
897.811	15355.4
898.126	15276.53
898.441	15303.2
898.756	15284.89
899.071	15130.77
899.386	15198.34
899.7	15006.94
900.015	14987.73
900.33	14888.07
900.644	14824.34
900.959	14871.12
901.273	14797.22
901.588	14726.72
901.902	14629.09
902.216	14534.41
902.531	14525.14
902.845	14571.24
903.159	14377.12
903.473	14339.38
903.787	14303.9
904.101	14241.31
904.415	14307.52
904.729	14131.03
905.042	14045.38
905.356	14117.02
905.67	13979.62
905.984	14085.15
906.297	14005.38
906.611	13828.66
906.924	13774.2
907.237	13737.59
907.551	13720.19
907.864	13627.54
908.177	13690.36
908.491	13588.67
908.804	13496.69
909.117	13512.96
909.43	13312.07
909.743	13275.46
910.056	13332.4
910.368	13186.87
910.681	13216.02
910.994	13056.48
911.307	13096.7
911.619	12915.47
911.932	13039.3
912.244	12882.47
912.557	12857.84
912.869	12827.11
913.181	12717.28
913.494	12784.17
913.806	12568.58
914.118	12587.34
914.43	12544.63
914.742	12504.63
915.054	12515.93
915.366	12423.95
915.678	12316.61
915.99	12218.99
916.302	12164.98
916.613	12138.08
916.925	12209.04
917.236	12054.25
917.548	11945.55
917.859	11988.48
918.171	11969.5
918.482	11854.48
918.794	11795.27
919.105	11785.78
919.416	11691.09
919.727	11668.04
920.038	11622.39
920.349	11588.27
920.66	11566.57
920.971	11472.34
921.282	11491.1
921.593	11396.86
921.903	11317.54
922.214	11262.4
922.525	11172.01
922.835	11172.91
923.146	11124.55
923.456	11114.61
923.767	10960.49
924.077	10964.1
924.387	10958.68
924.697	10916.65
925.008	10841.85
925.318	10819.25
925.628	10761.4
925.938	10703.09
926.248	10604.57
926.558	10608.63
926.867	10616.32
927.177	10534.96
927.487	10480.73
927.796	10416.77
928.106	10474.63
928.416	10426.04
928.725	10348.3
929.034	10294.74
929.344	10246.61
929.653	10213.84
929.962	10137.01
930.271	10160.51
930.581	9997.8
930.89	10066.95
931.199	9963
931.508	9987.41
931.817	9958.71
932.125	9879.16
932.434	9840.29
932.743	9720.75
933.051	9757.36
933.36	9711.26
933.669	9654.76
933.977	9611.82
934.286	9574.76
934.594	9494.54
934.902	9437.14
935.21	9386.74
935.519	9340.42
935.827	9426.97
936.135	9353.3
936.443	9242.79
936.751	9228.1
937.059	9145.17
937.367	9158.05
937.674	9105.17
937.982	9088.45
938.29	9068.56
938.597	9068.79
938.905	8964.83
939.213	8908.79
939.52	8906.98
939.827	8933.2
940.135	8788.57
940.442	8770.72
940.749	8723.71
941.056	8738.63
941.363	8636.71
941.67	8648.91
941.977	8531.17
942.284	8562.36
942.591	8544.96
942.898	8525.75
943.205	8466.54
943.511	8365.3
943.818	8436.94
944.125	8262.48
944.431	8293.44
944.738	8269.26
945.044	8187.68
945.35	8187.91
945.657	8120.11
945.963	8098.87
946.269	8078.3
946.575	8097.74
946.881	8032.2
947.187	7949.27
947.493	7905.43
947.799	7868.37
948.105	7872.43
948.41	7811.87
948.716	7788.59
949.022	7759.89
949.327	7723.06
949.633	7631.76
949.938	7612.78
950.244	7639.67
950.549	7571.88
950.854	7561.48
951.16	7520.13
951.465	7479
951.77	7431.32
952.075	7418.66
952.38	7356.52
952.685	7376.63
952.99	7289.4
953.294	7296.18
953.599	7228.38
953.904	7128.95
954.209	7163.3
954.513	7134.37
954.818	7126.01
955.122	7108.84
955.426	7080.59
955.731	6984.55
956.035	6979.8
956.339	6950.65
956.643	6894.83
956.948	6860.48
957.252	6823.87
957.556	6823.42
957.86	6850.99
958.163	6862.74
958.467	6815.51
958.771	6738.45
959.075	6717.44
959.378	6608.51
959.682	6669.53
959.985	6554.5
960.289	6533.03
960.592	6511.79
960.896	6476.54
961.199	6501.4
961.502	6549.98
961.805	6448.74
962.108	6373.94
962.411	6370.33
962.714	6336.66
963.017	6293.27
963.32	6269.76
963.623	6251.91
963.926	6235.42
964.228	6151.12
964.531	6152.93
964.833	6185.92
965.136	6103.44
965.438	6100.5
965.741	6004.46
966.043	6044.46
966.345	5994.52
966.648	6000.85
966.95	6004.69
967.252	5898.47
967.554	5918.59
967.856	5837.46
968.158	5829.1
968.46	5821.41
968.761	5832.49
969.063	5762.21
969.365	5692.38
969.666	5696.67
969.968	5636.56
970.269	5604.92
970.571	5626.84
970.872	5575.09
971.174	5550.46
971.475	5545.72
971.776	5552.95
972.077	5511.59
972.378	5428.2
972.679	5461.2
972.98	5435.89
973.281	5393.63
973.582	5410.8
973.883	5321.09
974.183	5346.17
974.484	5316.8
974.785	5227.98
975.085	5261.2
975.386	5272.5
975.686	5160.42
975.986	5207.65
976.287	5168.32
976.587	5144.6
976.887	5155.67
977.187	5085.16
977.487	5106.63
977.787	5040.42
978.087	5061.21
978.387	5060.53
978.687	5002.23
978.987	4939.86
979.286	4977.37
979.586	4931.95
979.885	4887.2
980.185	4898.05
980.484	4825.51
980.784	4831.38
981.083	4814.66
981.382	4805.17
981.682	4769.46
981.981	4785.74
982.28	4711.39
982.579	4640.88
982.878	4690.6
983.177	4626.64
983.475	4636.14
983.774	4612.18
984.073	4599.98
984.372	4538.96
984.67	4552.07
984.969	4537.15
985.267	4484.5
985.566	4465.52
985.864	4449.93
986.162	4413.09
986.461	4424.39
986.759	4362.47
987.057	4297.84
987.355	4293.77
987.653	4314.56
987.951	4301.68
988.249	4298.52
988.547	4261.46
988.844	4268.46
989.142	4218.75
989.44	4180.33
989.737	4177.62
990.035	4171.29
990.332	4123.38
990.63	4129.93
990.927	4076.15
991.224	4109.14
991.521	4072.08
991.819	4016.26
992.116	3998.64
992.413	4054.91
992.71	4018.3
993.006	3939.66
993.303	3942.14
993.6	3941.46
993.897	3898.53
994.193	3922.93
994.49	3860.79
994.787	3851.3
995.083	3812.43
995.379	3811.52
995.676	3791.19
995.972	3742.83
996.268	3740.34
996.565	3718.19
996.861	3711.87
997.157	3703.96
997.453	3665.99
997.749	3630.74
998.044	3620.57
998.34	3609.5
998.636	3574.69
998.932	3607.91
999.227	3571.53
999.523	3524.07
999.818	3533.57
1000.114	3492.21
1000.409	3455.15
1000.704	3495.15
1001	3391.2
1001.295	3364.53
1001.59	3373.57
1001.885	3389.16
1002.18	3370.63
1002.475	3341.25
1002.77	3327.92
1003.065	3309.39
1003.359	3306.68
1003.654	3250.18
1003.949	3218.09
1004.243	3227.13
1004.538	3214.93
1004.832	3168.15
1005.127	3209.28
1005.421	3170.86
1005.715	3126.57
1006.009	3105.78
1006.304	3096.97
1006.598	3103.29
1006.892	3051.77
1007.186	3040.7
1007.48	3040.92
1007.773	3015.16
1008.067	3016.29
1008.361	2968.16
1008.655	2948.72
1008.948	2947.82
1009.242	2928.38
1009.535	2889.51
1009.829	2898.55
1010.122	2859.91
1010.415	2838.67
1010.708	2838.22
1011.001	2812
1011.295	2777.88
1011.588	2767.03
1011.881	2781.95
1012.173	2770.87
1012.466	2741.5
1012.759	2717.77
1013.052	2707.37
1013.344	2675.73
1013.637	2679.35
1013.93	2651.55
1014.222	2612.69
1014.514	2640.26
1014.807	2581.95
1015.099	2564.33
1015.391	2585.34
1015.683	2550.31
1015.976	2523.65
1016.268	2498.34
1016.56	2479.58
1016.851	2448.85
1017.143	2450.2
1017.435	2499.24
1017.727	2406.82
1018.018	2429.87
1018.31	2384.67
1018.602	2378.79
1018.893	2359.81
1019.185	2374.5
1019.476	2339.92
1019.767	2313.71
1020.058	2287.27
1020.35	2256.31
1020.641	2260.38
1020.932	2230.1
1021.223	2235.29
1021.514	2209.53
1021.804	2197.56
1022.095	2179.7
1022.386	2160.27
1022.677	2148.74
1022.967	2104.9
1023.258	2114.85
1023.548	2096.31
1023.839	2112.59
1024.129	2078.91
1024.419	2070.33
1024.709	2035.3
1025	2054.96
1025.29	2007.05
1025.58	2002.31
1025.87	1990.78
1026.16	1995.3
1026.449	1932.48
1026.739	1973.61
1027.029	1915.3
1027.319	1904.23
1027.608	1905.59
1027.898	1864.46
1028.187	1867.85
1028.477	1839.37
1028.766	1853.84
1029.055	1833.95
1029.344	1852.25
1029.634	1829.66
1029.923	1795.53
1030.212	1790.11
1030.501	1766.83
1030.79	1739.71
1031.078	1718.7
1031.367	1730
1031.656	1726.83
1031.945	1708.75
1032.233	1734.06
1032.522	1671.69
1032.81	1666.04
1033.099	1692.94
1033.387	1659.04
1033.675	1658.36
1033.963	1637.57
1034.251	1652.48
1034.54	1581.07
1034.828	1609.55
1035.116	1562.09
1035.403	1566.84
1035.691	1554.86
1035.979	1534.97
1036.267	1523.9
1036.554	1487.52
1036.842	1502.21
1037.129	1487.97
1037.417	1497.23
1037.704	1496.1
1037.992	1466.28
1038.279	1453.85
1038.566	1434.86
1038.853	1434.86
1039.14	1434.86
