Data from 291_FLMS001491_003.txt Node
Date: Thu Apr 19 16:45:40 BST 2018
User: hsy
Spectrometer: FLMS00149
Trigger mode: 0
Integration Time (sec): 1.000000E-2
Scans to average: 10
Electric dark correction enabled: true
Nonlinearity correction enabled: false
Boxcar width: 0
XAxis mode: Wavelengths
Number of Pixels in Spectrum: 2048
>>>>>Begin Spectral Data<<<<<
341.393	-23.66
341.776	-23.66
342.16	-23.66
342.543	-67.05
342.927	-72.7
343.31	-77.67
343.693	-52.81
344.077	-58.68
344.46	-66.14
344.843	-74.28
345.226	-29.53
345.61	-33.37
345.993	-30.44
346.376	12.73
346.759	12.5
347.142	31.71
347.525	39.39
347.908	50.24
348.291	77.81
348.674	91.37
349.057	107.19
349.44	134.98
349.823	145.83
350.206	172.72
350.588	213.62
350.971	240.06
351.354	252.95
351.737	264.7
352.119	292.72
352.502	288.88
352.884	289.55
353.267	329.33
353.65	328.42
354.032	321.64
354.414	330.01
354.797	355.09
355.179	357.35
355.562	363.68
355.944	347.18
356.326	393.51
356.709	374.75
357.091	363.45
357.473	362.55
357.855	377.24
358.238	387.63
358.62	379.27
359.002	374.3
359.384	393.96
359.766	353.28
360.148	373.85
360.53	380.4
360.912	351.47
361.294	391.47
361.676	385.6
362.057	388.99
362.439	363.45
362.821	355.99
363.203	373.39
363.584	362.55
363.966	367.29
364.348	368.2
364.729	367.07
365.111	362.77
365.493	359.84
365.874	356.45
366.256	367.74
366.637	355.09
367.019	340.85
367.4	348.31
367.781	347.63
368.163	354.19
368.544	351.7
368.925	372.94
369.306	359.84
369.688	351.25
370.069	339.27
370.45	371.13
370.831	373.85
371.212	356.45
371.593	341.53
371.974	372.94
372.355	346.28
372.736	355.99
373.117	361.19
373.498	355.77
373.879	358.71
374.26	370.91
374.641	351.7
375.021	363.68
375.402	363.22
375.783	381.53
376.163	388.99
376.544	363.22
376.925	374.52
377.305	382.43
377.686	365.94
378.066	385.6
378.447	378.59
378.827	397.35
379.208	400.06
379.588	375.2
379.968	372.26
380.349	363
380.729	402.09
381.109	400.96
381.489	379.72
381.87	406.39
382.25	414.97
382.63	403.9
383.01	415.43
383.39	410.46
383.77	438.03
384.15	421.75
384.53	430.79
384.91	436.22
385.29	421.53
385.67	420.62
386.049	471.47
386.429	421.53
386.809	438.25
387.189	440.51
387.568	441.19
387.948	463.11
388.328	440.96
388.707	456.56
389.087	476.22
389.466	454.97
389.846	460.17
390.225	489.78
390.605	484.58
390.984	492.49
391.363	481.87
391.743	481.87
392.122	484.8
392.501	501.3
392.881	500.85
393.26	508.08
393.639	506.05
394.018	496.1
394.397	518.48
394.776	528.42
395.155	527.97
395.534	521.86
395.913	551.69
396.292	538.36
396.671	550.56
397.05	544.69
397.429	581.75
397.808	556.89
398.186	568.64
398.565	585.37
398.944	576.1
399.323	572.48
399.701	587.85
400.08	578.59
400.458	602.54
400.837	603.9
401.215	609.77
401.594	619.49
401.972	634.86
402.351	645.25
402.729	643.67
403.107	639.83
403.486	663.33
403.864	674.18
404.242	665.59
404.62	668.98
404.999	680.5
405.377	682.76
405.755	692.03
406.133	719.6
406.511	690.67
406.889	735.87
407.267	756.89
407.645	749.2
408.023	755.08
408.401	799.82
408.779	770.45
409.156	806.6
409.534	828.52
409.912	843.21
410.29	866.71
410.667	861.29
411.045	863.55
411.422	904
411.8	910.33
412.178	958.46
412.555	941.97
412.933	975.19
413.31	986.71
413.687	995.3
414.065	1034.17
414.442	1028.07
414.819	1084.56
415.197	1063.55
415.574	1095.86
415.951	1122.98
416.328	1117.1
416.705	1151.23
417.082	1151.68
417.46	1155.75
417.837	1168.18
418.214	1203.2
418.591	1201.85
418.967	1236.87
419.344	1233.03
419.721	1240.04
420.098	1288.4
420.475	1295.86
420.852	1314.39
421.228	1314.61
421.605	1360.26
421.982	1334.27
422.358	1389.64
422.735	1392.8
423.111	1376.08
423.488	1449.98
423.864	1474.38
424.241	1470.77
424.617	1490.88
424.994	1519.35
425.37	1544.21
425.746	1532.91
426.123	1582.18
426.499	1571.55
426.875	1595.06
427.251	1657.88
427.627	1669.18
428.003	1695.62
428.379	1677.31
428.756	1727.93
429.132	1734.04
429.507	1805.22
429.883	1795.5
430.259	1837.76
430.635	1857.2
431.011	1865.33
431.387	1904.88
431.763	1931.55
432.138	1967.7
432.514	1996.18
432.89	2038.66
433.265	2079.79
433.641	2093.35
434.016	2117.98
434.392	2165.44
434.767	2195.49
435.143	2186.91
435.518	2248.37
435.894	2286.56
436.269	2311.2
436.644	2349.39
437.02	2334.02
437.395	2408.59
437.77	2437.52
438.145	2463.96
438.52	2516.84
438.895	2541.92
439.271	2547.12
439.646	2573.34
440.021	2627.57
440.395	2644.29
440.77	2625.09
441.145	2678.87
441.52	2729.94
441.895	2769.72
442.27	2766.78
442.645	2753.22
443.019	2805.42
443.394	2831.86
443.769	2872.54
444.143	2907.34
444.518	2907.56
444.892	2939.88
445.267	2966.77
445.641	2951.18
446.016	3011.52
446.39	3029.82
446.764	3036.15
447.139	3068.46
447.513	3092.87
447.887	3116.37
448.262	3113.44
448.636	3157.05
449.01	3193.88
449.384	3243.15
449.758	3233.66
450.132	3328.8
450.506	3278.85
450.88	3322.7
451.254	3381.68
451.628	3420.55
452.002	3443.14
452.376	3508
452.75	3527.44
453.123	3533.09
453.497	3597.49
453.871	3611.5
454.244	3697.37
454.618	3768.79
454.992	3796.58
455.365	3841.78
455.739	3927.88
456.112	3954.99
456.486	3982.11
456.859	4031.6
457.232	4114.54
457.606	4138.72
457.979	4234.31
458.352	4304.82
458.725	4372.39
459.099	4367.87
459.472	4406.73
459.845	4527.18
460.218	4531.25
460.591	4614.86
460.964	4612.15
461.337	4743
461.71	4818.93
462.083	4838.36
462.456	4923.56
462.829	4919.26
463.201	5064.12
463.574	5021.63
463.947	5104.12
464.32	5179.37
464.692	5300.5
465.065	5280.16
465.438	5399.25
465.81	5459.59
466.183	5468.63
466.555	5595.86
466.928	5644.22
467.3	5625.91
467.672	5738
468.045	5900.25
468.417	5897.54
468.789	5946.81
469.161	5999.46
469.534	6083.75
469.906	6234.26
470.278	6234.71
470.65	6363.07
471.022	6459.11
471.394	6571.88
471.766	6624.08
472.138	6726.67
472.51	6812.55
472.882	6909.27
473.253	6981.36
473.625	7123.27
473.997	7233.78
474.369	7238.3
474.74	7391.51
475.112	7531.85
475.484	7623.37
475.855	7710.38
476.227	7867.21
476.598	8012.97
476.97	8122.34
477.341	8313.75
477.713	8370.47
478.084	8497.93
478.455	8695.21
478.827	8683.68
479.198	8940.17
479.569	9028.08
479.94	9273.73
480.311	9353.95
480.682	9553.04
481.053	9767.05
481.424	9905.57
481.795	9996.87
482.166	10111.44
482.537	10251.33
482.908	10469.17
483.279	10573.58
483.65	10754.59
484.021	10977.64
484.391	11079.1
484.762	11230.06
485.133	11360.9
485.503	11526.1
485.874	11769.25
486.244	11921.11
486.615	12074.78
486.985	12285.4
487.356	12386.86
487.726	12597.48
488.097	12785.5
488.467	12837.47
488.837	13169.22
489.207	13226.16
489.578	13470.68
489.948	13562.2
490.318	13875.41
490.688	13781.86
491.058	14030.44
491.428	14292.35
491.798	14368.28
492.168	14685.33
492.538	14750.64
492.908	14957.87
493.278	15140.92
493.648	15167.58
494.017	15313.11
494.387	15316.05
494.757	15567.57
495.126	15716.27
495.496	15744.06
495.866	15881.91
496.235	16052.3
496.605	16128.01
496.974	16232.41
497.344	16309.7
497.713	16395.57
498.082	16555.79
498.452	16615.45
498.821	16715.79
499.19	16822.23
499.559	16926.41
499.928	17047.98
500.298	17167.98
500.667	17245.72
501.036	17232.84
501.405	17352.83
501.774	17436.67
502.143	17520.51
502.512	17543.79
502.88	17737.91
503.249	17725.25
503.618	17838.25
503.987	17899.94
504.356	18089.76
504.724	18127.73
505.093	18097.9
505.462	18244.34
505.83	18285.24
506.199	18521.39
506.567	18609.98
506.936	18595.97
507.304	18798.45
507.672	18870.53
508.041	18907.6
508.409	19058.55
508.777	19220.58
509.145	19324.76
509.514	19272.33
509.882	19427.58
510.25	19494.02
510.618	19612.89
510.986	19794.58
511.354	19781.7
511.722	19933.78
512.09	20069.83
512.458	19905.31
512.826	20372.64
513.193	20282.93
513.561	20302.81
513.929	20439.99
514.297	20629.13
514.664	20738.96
515.032	20846.75
515.4	21039.07
515.767	21061.44
516.135	21257.14
516.502	21065.51
516.869	21409.9
517.237	21530.8
517.604	21371.71
517.972	21779.84
518.339	21781.42
518.706	21740.29
519.073	21953.39
519.44	21992.49
519.808	22241.29
520.175	22289.65
520.542	22458.01
520.909	22494.39
521.276	22566.93
521.643	22844.44
522.009	22908.85
522.376	23021.84
522.743	23098.67
523.11	23274.94
523.477	23480.13
523.843	23627.25
524.21	23796.51
524.577	23887.13
524.943	24020.23
525.31	24147.01
525.676	24333.67
526.043	24393.78
526.409	24536.6
526.776	24789.25
527.142	24694.11
527.508	24823.82
527.874	25026.08
528.241	25136.58
528.607	25242.8
528.973	25435.79
529.339	25332.06
529.705	25659.06
530.071	25753.52
530.437	25765.49
530.803	25911.93
531.169	25916.68
531.535	25939.73
531.901	26103.57
532.267	26157.12
532.632	26260.4
532.998	26348.08
533.364	26357.12
533.73	26417.46
534.095	26636.43
534.461	26646.6
534.826	26713.04
535.192	26736.77
535.557	26822.64
535.923	26704.45
536.288	26964.33
536.653	26899.7
537.019	27013.82
537.384	26887.27
537.749	27003.2
538.114	27046.14
538.479	26967.5
538.845	27075.74
539.21	27034.84
539.575	26934.73
539.94	27050.21
540.305	27125.69
540.67	26996.65
541.034	27033.03
541.399	27078
541.764	27061.73
542.129	27112.58
542.494	27071.68
542.858	27176.31
543.223	27013.6
543.587	27225.8
543.952	27014.5
544.316	27114.61
544.681	27026.03
545.045	27192.35
545.41	27148.51
545.774	27075.52
546.138	26973.15
546.503	27068.06
546.867	27042.75
547.231	27070.55
547.595	27061.73
547.959	27176.98
548.324	27040.26
548.688	26985.58
549.052	27039.81
549.416	27035.52
549.779	26888.86
550.143	26978.8
550.507	27103.54
550.871	27049.98
551.235	26962.07
551.599	27064.22
551.962	27155.06
552.326	27086.14
552.689	27132.01
553.053	26892.24
553.417	26908.29
553.78	27186.02
554.143	27059.25
554.507	27189.41
554.87	27113.71
555.234	27274.61
555.597	26959.36
555.96	27012.69
556.323	27207.94
556.686	27073.48
557.05	27145.8
557.413	27159.36
557.776	27113.93
558.139	27280.71
558.502	27197.32
558.865	27194.16
559.228	27290.65
559.59	27216.53
559.953	27291.33
560.316	27549.4
560.679	27317.77
561.041	27435.06
561.404	27427.82
561.767	27687.25
562.129	27416.07
562.492	27666.69
562.854	27677.53
563.217	27563.87
563.579	27668.5
563.941	27695.39
564.304	27866.68
564.666	27996.85
565.028	27882.5
565.39	27910.52
565.753	28069.16
566.115	28017.64
566.477	28152.55
566.839	28057.86
567.201	28407.91
567.563	28241.81
567.925	28413.33
568.287	28289.27
568.648	28355.94
569.01	28528.59
569.372	28708.02
569.734	28541.92
570.095	28665.08
570.457	28792.76
570.819	28859.65
571.18	28704.85
571.542	28962.47
571.903	28951.85
572.265	29042.47
572.626	29050.38
572.987	29046.99
573.349	29223.26
573.71	29351.62
574.071	29265.74
574.432	29384.83
574.794	29516.58
575.155	29403.82
575.516	29470.71
575.877	29454.89
576.238	29520.88
576.599	29726.52
576.96	29687.88
577.32	29724.71
577.681	29692.62
578.042	29891.26
578.403	29862.11
578.763	29825.28
579.124	29811.72
579.485	30054.65
579.845	30128.54
580.206	29941.43
580.566	29983.69
580.927	30019.39
581.287	30161.09
581.648	30046.06
582.008	30288.99
582.368	30116.11
582.728	30100.52
583.089	30142.33
583.449	30173.29
583.809	30198.37
584.169	30250.12
584.529	30228.88
584.889	30532.83
585.249	30200.86
585.609	30092.39
585.969	30358.14
586.329	30160.63
586.688	30384.13
587.048	30322.44
587.408	30209.45
587.768	30179.62
588.127	30310.23
588.487	30275.88
588.846	30459.16
589.206	30325.6
589.565	30254.19
589.925	30573.96
590.284	30342.1
590.643	30361.53
591.003	30453.73
591.362	30580.74
591.721	30498.93
592.08	30434.75
592.44	30670.45
592.799	30489.21
593.158	30697.57
593.517	30405.6
593.876	30673.84
594.235	30639.72
594.593	30635.88
594.952	30616.21
595.311	30691.69
595.67	30630.45
596.029	30748.64
596.387	30755.42
596.746	30796.32
597.104	30746.83
597.463	30783.89
597.822	30946.6
598.18	30826.6
598.538	30938.69
598.897	30961.97
599.255	30782.54
599.613	31090.78
599.972	30969.2
600.33	30949.99
600.688	30985.24
601.046	31076.99
601.404	31281.96
601.762	31034.51
602.12	31256.65
602.478	31307.95
602.836	31347.72
603.194	31085.81
603.552	31083.55
603.91	31209.65
604.268	31221.4
604.625	31293.71
604.983	31362.86
605.341	31265.69
605.698	31368.51
606.056	31589.52
606.413	31403.76
606.771	31638.11
607.128	31721.04
607.485	31543.87
607.843	31640.37
608.2	31675.85
608.557	31778.44
608.914	31786.13
609.272	31865.67
609.629	32014.14
609.986	32070.87
610.343	32080.36
610.7	32302.5
611.057	32070.64
611.414	32147.25
611.771	32225.89
612.127	32257.75
612.484	32327.36
612.841	32521.25
613.198	32341.37
613.554	32298.66
613.911	32548.59
614.267	32594.69
614.624	32537.29
614.98	32578.65
615.337	32829.94
615.693	32743.16
616.05	32746.78
616.406	32932.99
616.762	32825.2
617.118	32960.56
617.475	32968.47
617.831	33011.63
618.187	33039.65
618.543	33096.15
618.899	33351.74
619.255	33197.84
619.611	33268.57
619.967	33363.71
620.323	33417.27
620.678	33336.82
621.034	33255.69
621.39	33329.14
621.746	33318.29
622.101	33644.16
622.457	33464.95
622.812	33497.72
623.168	33711.05
623.523	33527.1
623.879	33640.77
624.234	33600.54
624.589	33649.13
624.945	33652.07
625.3	33728.22
625.655	33706.53
626.01	33674.67
626.365	33773.42
626.72	33806.87
627.075	33775.45
627.43	33720.09
627.785	33857.03
628.14	33734.1
628.495	33826.53
628.85	33819.75
629.205	33673.31
629.559	33793.08
629.914	33650.94
630.269	33616.14
630.623	33570.26
630.978	33529.58
631.332	33678.06
631.687	33630.6
632.041	33546.53
632.396	33538.62
632.75	33479.87
633.104	33495.01
633.459	33238.07
633.813	33273.77
634.167	33268.35
634.521	33300.89
634.875	33273.32
635.229	33320.78
635.583	33172.53
635.937	33105.41
636.291	33051.63
636.645	33034
636.999	32954.91
637.352	33024.74
637.706	32886.21
638.06	33194
638.413	32807.34
638.767	32813.45
639.121	32975.02
639.474	32747.01
639.828	32852.77
640.181	32793.11
640.534	32908.36
640.888	32725.09
641.241	32579.55
641.594	32599.89
641.947	32606.9
642.301	32579.55
642.654	32665.43
643.007	32675.37
643.36	32664.52
643.713	32533.68
644.066	32818.87
644.419	32610.51
644.771	32328.26
645.124	31918.55
645.477	31881.27
645.83	31744.32
646.182	31755.62
646.535	31778.22
646.888	31820.48
647.24	31779.35
647.593	31980.25
647.945	31788.84
648.298	31588.84
648.65	31651.44
649.002	31436.31
649.355	31352.69
649.707	31344.11
650.059	31425.68
650.411	31840.14
650.763	31980.47
651.115	32461.14
651.467	32388.15
651.819	32406.68
652.171	32235.83
652.523	32182.05
652.875	32316.96
653.227	32118.32
653.578	32424.08
653.93	32294.59
654.282	32240.58
654.633	32124.2
654.985	32308.6
655.337	32361.25
655.688	32356.73
656.039	32357.41
656.391	32029.74
656.742	32349.05
657.094	32360.58
657.445	32238.77
657.796	32493.45
658.147	32241.26
658.498	32516.28
658.849	32567.8
659.2	32342.05
659.551	32358.99
659.902	32633.11
660.253	32506.79
660.604	32557.18
660.955	32429.95
661.306	32730.74
661.656	32504.75
662.007	32582.04
662.358	32559.89
662.708	32708.36
663.059	32538.42
663.409	32593.34
663.76	32613
664.11	32934.57
664.461	32822.71
664.811	32977.28
665.161	32888.47
665.511	32728.02
665.862	32812.77
666.212	32861.13
666.562	32837.4
666.912	32940.22
667.262	32907.68
667.612	32784.07
667.962	32884.86
668.312	32886.66
668.662	33040.78
669.011	32989.71
669.361	32757.18
669.711	32931.41
670.06	32808.7
670.41	32727.57
670.76	32795.82
671.109	32856.61
671.459	32912.2
671.808	32749.27
672.157	32879.88
672.507	32598.08
672.856	32673.11
673.205	32740.23
673.554	32756.27
673.904	32578.88
674.253	32825.87
674.602	32601.25
674.951	32137.53
675.3	32118.1
675.649	32587.01
675.998	32621.81
676.346	32589.5
676.695	32542.49
677.044	32416.17
677.393	32447.13
677.741	32534.13
678.09	32496.62
678.438	32327.36
678.787	32388.82
679.135	32240.8
679.484	32163.29
679.832	32144.54
680.181	32243.74
680.529	32101.6
680.877	32057.08
681.225	32016.86
681.573	32214.14
681.922	32033.8
682.27	32078.78
682.618	31888.27
682.966	31896.18
683.314	31807.37
683.661	31872.45
684.009	31676.53
684.357	31557.88
684.705	31477.66
685.053	31471.33
685.4	31392.47
685.748	31335.74
686.095	31205.13
686.443	31026.37
686.79	31151.79
687.138	31132.81
687.485	31164.67
687.832	30838.81
688.18	30785.48
688.527	30633.16
688.874	30506.84
689.221	30665.03
689.568	30493.51
689.915	30428.65
690.262	30366.28
690.609	30296.9
690.956	30114.31
691.303	30030.47
691.65	29983.46
691.997	29891.26
692.344	29759.06
692.69	29592.06
693.037	29593.42
693.383	29363.82
693.73	29374.21
694.077	29282.01
694.423	29111.62
694.769	29044.28
695.116	28968.35
695.462	28810.39
695.808	28598.87
696.155	28655.59
696.501	28447.01
696.847	28456.5
697.193	28178.31
697.539	28150.74
697.885	28006.11
698.231	27988.04
698.577	27903.29
698.923	27672.11
699.269	27568.84
699.614	27539.46
699.96	27378.11
700.306	27340.37
700.651	27169.53
700.997	27050.88
701.342	26967.95
701.688	26940.38
702.033	26761.85
702.379	26815.18
702.724	26609.99
703.069	26686.15
703.415	26229.66
703.76	26310.79
704.105	26313.05
704.45	26220.4
704.795	25948.31
705.14	25920.52
705.485	25879.39
705.83	25695.21
706.175	25779.96
706.52	25702.9
706.865	25444.6
707.209	25370.25
707.554	25377.26
707.899	25374.54
708.243	25172.97
708.588	25053.42
708.932	25009.58
709.277	24963.03
709.621	25005.74
709.966	24804.39
710.31	24843.26
710.654	24606.66
710.998	24635.58
711.342	24750.61
711.687	24532.53
712.031	24461.57
712.375	24308.13
712.719	24438.07
713.063	24335.02
713.407	24439.2
713.75	24251.64
714.094	24257.29
714.438	24173.22
714.782	24182.71
715.125	24052.55
715.469	24118.31
715.812	24016.84
716.156	23970.74
716.499	23919.67
716.843	24025.43
717.186	23793.12
717.53	24019.33
717.873	23917.18
718.216	23784.76
718.559	23842.83
718.902	23677.64
719.246	23806
719.589	23585.89
719.932	23597.19
720.275	23820.91
720.617	23720.58
720.96	23708.83
721.303	23714.93
721.646	23721.48
721.989	23597.87
722.331	23724.42
722.674	23611.65
723.016	23613.24
723.359	23602.16
723.701	23575.04
724.044	23496.63
724.386	23481.94
724.729	23573.69
725.071	23511.09
725.413	23554.48
725.755	23517.87
726.097	23542.73
726.439	23436.29
726.782	23422.73
727.124	23558.55
727.465	23631.99
727.807	23525.33
728.149	23509.96
728.491	23485.1
728.833	23631.77
729.175	23540.24
729.516	23563.52
729.858	23579.11
730.199	23677.64
730.541	23657.3
730.882	23654.36
731.224	23728.71
731.565	23584.54
731.906	23801.03
732.248	23840.8
732.589	23648.71
732.93	23709.5
733.271	23735.72
733.612	23813.68
733.953	23926
734.294	23902.94
734.635	23726
734.976	23970.06
735.317	23938.88
735.658	23991.08
735.999	23954.24
736.339	23994.24
736.68	24039.66
737.021	24111.75
737.361	24192.2
737.702	24322.14
738.042	24354.01
738.383	24333.67
738.723	24427.9
739.063	24390.84
739.404	24597.62
739.744	24595.58
740.084	24459.09
740.424	24746.76
740.764	24707.9
741.104	24929.13
741.444	24888.46
741.784	24997.38
742.124	25174.55
742.464	25111.95
742.804	25186.53
743.143	25229.01
743.483	25383.81
743.823	25338.39
744.162	25413.41
744.502	25701.32
744.841	25774.31
745.181	26007.07
745.52	25918.49
745.86	26197.35
746.199	26106.05
746.538	26264.01
746.877	26570.22
747.216	26476.66
747.556	26611.35
747.895	26849.08
748.234	26940.15
748.573	27170.88
748.911	27249.3
749.25	27468.5
749.589	27514.38
749.928	27755.05
750.267	27906
750.605	28060.12
750.944	28232.32
751.283	28381.25
751.621	28520
751.96	28545.99
752.298	28876.83
752.636	28965.41
752.975	29185.97
753.313	29323.59
753.651	29617.37
753.989	29643.36
754.327	29886.74
754.666	29971.26
755.004	30293.74
755.342	30477.01
755.679	30638.14
756.017	30647.4
756.355	31017.79
756.693	30975.53
757.031	31333.94
757.368	31275.18
757.706	31609.63
758.044	31829.97
758.381	31958.55
758.719	31995.84
759.056	32290.07
759.394	32372.55
759.731	32259.34
760.068	32594.69
760.405	32743.62
760.743	32878.53
761.08	33004.63
761.417	33115.13
761.754	33214.11
762.091	33460.43
762.428	33283.72
762.765	33519.64
763.102	33616.14
763.438	33692.07
763.775	33810.93
764.112	33874.66
764.449	33986.97
764.785	34105.16
765.122	34173.18
765.458	34095.22
765.795	34273.97
766.131	34452.27
766.467	34469.22
766.804	34262.67
767.14	34325.95
767.476	34389.67
767.812	34394.19
768.148	34602.55
768.485	34474.64
768.821	34494.53
769.157	34352.84
769.492	34611.82
769.828	34498.15
770.164	34391.93
770.5	34450.92
770.836	34560.74
771.171	34492.95
771.507	34395.1
771.842	34341.99
772.178	34473.29
772.513	34421.99
772.849	34304.03
773.184	34296.8
773.519	34262.9
773.855	34251.15
774.19	34244.14
774.525	34073.07
774.86	34231.49
775.195	34152.39
775.53	34026.75
775.865	33835.57
776.2	33703.14
776.535	33617.04
776.87	33650.94
777.205	33591.96
777.539	33460.21
777.874	33687.77
778.209	33295.24
778.543	33561.9
778.878	33286.65
779.212	33407.1
779.547	33038.98
779.881	33192.19
780.215	32951.97
780.55	32860
780.884	32774.8
781.218	32625.2
781.552	32823.84
781.886	32538.88
782.22	32520.12
782.554	32559.21
782.888	32217.75
783.222	32214.36
783.556	32025.44
783.889	31924.88
784.223	31721.95
784.557	31813.92
784.89	31911.1
785.224	31600.37
785.557	31561.95
785.891	31403.09
786.224	31476.53
786.558	31408.74
786.891	31202.41
787.224	31075.41
787.557	31055.07
787.891	31074.96
788.224	30818.02
788.557	30872.03
788.89	30656.89
789.223	30705.25
789.556	30555.43
789.888	30413.06
790.221	30333.96
790.554	30203.34
790.887	30174.64
791.219	30070.24
791.552	30055.1
791.884	29973.52
792.217	29911.37
792.549	29746.63
792.882	29535.34
793.214	29503.48
793.546	29503.48
793.879	29327.66
794.211	29084.96
794.543	29248.79
794.875	29216.25
795.207	29153.2
795.539	29077.05
795.871	29022.58
796.203	28884.28
796.535	28787.34
796.867	28675.25
797.198	28550.51
797.53	28504.86
797.862	28380.79
798.193	28421.24
798.525	28181.7
798.856	28450.85
799.188	27973.12
799.519	27957.08
799.85	27753.24
800.182	27841.82
800.513	27944.42
800.844	27604.77
801.175	27642.06
801.506	27675.28
801.837	27404.32
802.168	27529.52
802.499	27485.9
802.83	27175.4
803.161	27202.29
803.491	27247.26
803.822	27178.11
804.153	27080.71
804.483	26923.88
804.814	26731.57
805.145	26885.47
805.475	26727.5
805.805	26752.81
806.136	26759.59
806.466	26589.43
806.796	26592.37
807.126	26324.12
807.457	26300.17
807.787	26468.98
808.117	26323.22
808.447	26183.79
808.777	26373.84
809.107	25996.9
809.436	26011.14
809.766	26032.83
810.096	25987.86
810.426	25837.58
810.755	25876.9
811.085	25719.62
811.414	25849.79
811.744	25578.83
812.073	25670.36
812.403	25597.14
812.732	25352.85
813.061	25582.22
813.39	25360.99
813.719	25280.08
814.049	25395.11
814.378	25429.23
814.707	25087.77
815.036	25258.16
815.365	25022.24
815.693	24892.75
816.022	25036.02
816.351	24863.6
816.68	24712.19
817.008	24797.38
817.337	24677.39
817.665	24655.24
817.994	24668.35
818.322	24641
818.651	24488.01
818.979	24508.58
819.307	24407.56
819.636	24551.74
819.964	24443.27
820.292	24356.49
820.62	24314.69
820.948	24445.08
821.276	24424.74
821.604	24407.56
821.932	24502.7
822.259	24427
822.587	24384.29
822.915	24232.43
823.243	24307
823.57	24297.74
823.898	24426.32
824.225	24352.42
824.553	24223.16
824.88	24278.75
825.207	24490.05
825.535	24301.13
825.862	24369.6
826.189	24410.5
826.516	24563.72
826.843	24440.56
827.17	24469.71
827.497	24511.52
827.824	24551.52
828.151	24562.59
828.478	24481.23
828.805	24608.46
829.131	24565.53
829.458	24508.35
829.785	24368.47
830.111	24469.03
830.438	24572.31
830.764	24523.95
831.09	24511.52
831.417	24467.45
831.743	24610.95
832.069	24408.69
832.395	24454.34
832.722	24527.56
833.048	24374.12
833.374	24378.19
833.7	24398.98
834.026	24458.64
834.351	24325.31
834.677	24301.58
835.003	24364.4
835.329	24364.85
835.654	24313.56
835.98	24092.09
836.306	24226.55
836.631	24135.48
836.956	24347
837.282	24316.04
837.607	24217.51
837.932	24149.49
838.258	24064.07
838.583	23993.11
838.908	24027.24
839.233	23947.69
839.558	23961.02
839.883	23937.75
840.208	23884.87
840.533	23885.32
840.858	23902.94
841.182	23796.06
841.507	23904.07
841.832	23684.65
842.156	23702.72
842.481	23657.08
842.805	23543.63
843.13	23568.94
843.454	23395.16
843.778	23445.78
844.103	23467.48
844.427	23301.6
844.751	23385.9
845.075	23218.9
845.399	23222.28
845.723	23121.04
846.047	23191.1
846.371	22942.52
846.695	22830.66
847.019	22791.34
847.343	22725.35
847.666	22599.02
847.99	22481.74
848.313	22414.62
848.637	22311.57
848.96	22324.46
849.284	22327.85
849.607	22154.74
849.931	22093.95
850.254	21929.89
850.577	21814.41
850.9	21740.29
851.223	21673.4
851.546	21567.87
851.869	21475.89
852.192	21620.75
852.515	21420.75
852.838	21266.86
853.161	21272.96
853.483	21139.85
853.806	21042
854.129	21023.02
854.451	21045.17
854.774	20938.96
855.096	20803.14
855.419	20715.23
855.741	20715.46
856.063	20573.54
856.385	20546.42
856.708	20537.38
857.03	20392.3
857.352	20388.46
857.674	20378.29
857.996	20250.16
858.318	20049.03
858.64	20151.63
858.961	20091.75
859.283	19974.46
859.605	19891.3
859.926	19929.26
860.248	19847.91
860.57	19890.85
860.891	19832.54
861.212	19688.14
861.534	19707.8
861.855	19608.14
862.176	19607.46
862.498	19607.24
862.819	19602.04
863.14	19434.14
863.461	19368.37
863.782	19407.92
864.103	19407.47
864.424	19407.24
864.745	19444.98
865.065	19244.08
865.386	19171.09
865.707	19231.88
866.027	19197.53
866.348	19145.78
866.668	19113.24
866.989	19076.41
867.309	18985.79
867.63	19010.19
867.95	19024.66
868.27	18802.97
868.59	18869.18
868.91	18787.15
869.23	18796.64
869.55	18694.95
869.87	18806.13
870.19	18833.25
870.51	18797.54
870.83	18733.36
871.15	18595.74
871.469	18638.68
871.789	18701.05
872.109	18614.5
872.428	18548.06
872.748	18542.63
873.067	18518
873.386	18476.42
873.706	18532.69
874.025	18503.99
874.344	18245.01
874.663	18283.43
874.982	18345.12
875.301	18219.93
875.62	18169.54
875.939	18190.1
876.258	18241.4
876.577	18110.1
876.896	18155.53
877.214	18124.34
877.533	18099.48
877.852	18087.28
878.17	17997.11
878.489	18075.75
878.807	17941.07
879.125	18021.97
879.444	17851.13
879.762	17876.89
880.08	17857.45
880.398	17817.68
880.716	17800.73
881.034	17695.42
881.352	17787.63
881.67	17676.67
881.988	17588.99
882.306	17559.16
882.624	17531.36
882.941	17481.64
883.259	17438.03
883.577	17460.18
883.894	17455.2
884.212	17331.14
884.529	17248.2
884.846	17292.27
885.164	17090.92
885.481	17102.22
885.798	17144.7
886.115	17050.02
886.432	17082.56
886.75	17001.66
887.067	17093.86
887.383	16882.34
887.7	16956.23
888.017	16796.69
888.334	16823.36
888.651	16699.97
888.967	16653.42
889.284	16612.74
889.6	16611.84
889.917	16649.35
890.233	16537.04
890.55	16506.98
890.866	16413.88
891.182	16318.06
891.498	16333.2
891.815	16292.3
892.131	16274.22
892.447	16167.33
892.763	16166.2
893.079	16040.1
893.395	16066.77
893.71	16050.95
894.026	15874.46
894.342	15964.85
894.657	15760.33
894.973	15869.26
895.289	15825.87
895.604	15720.79
895.92	15652.54
896.235	15607.8
896.55	15564.41
896.865	15578.87
897.181	15456.16
897.496	15518.31
897.811	15375.03
898.126	15263.62
898.441	15288.48
898.756	15235.38
899.071	15133.68
899.386	15178.43
899.7	15006.23
900.015	14904.54
900.33	14920.58
900.644	14933.01
900.959	14774.15
901.273	14707.25
901.588	14688.95
901.902	14613.7
902.216	14596.07
902.531	14583.42
902.845	14467.26
903.159	14424.78
903.473	14390.65
903.787	14308.39
904.101	14220.49
904.415	14269.98
904.729	14137.1
905.042	14125.8
905.356	14042.41
905.67	13980.72
905.984	14061.4
906.297	13928.07
906.611	13911.57
906.924	13769.65
907.237	13778.92
907.551	13789.09
907.864	13641.52
908.177	13672.03
908.491	13516.55
908.804	13497.57
909.117	13390
909.43	13316.56
909.743	13304.13
910.056	13297.35
910.368	13232.49
910.681	13302.09
910.994	13196.11
911.307	13104.81
911.619	12935.78
911.932	12982.55
912.244	12852.39
912.557	12838.6
912.869	12757.02
913.181	12723.35
913.494	12803.8
913.806	12687.42
914.118	12525.39
914.43	12523.58
914.742	12601.1
915.054	12452.4
915.366	12347.32
915.678	12401.78
915.99	12318.39
916.302	12106.19
916.613	12129.02
916.925	12175.57
917.236	12067.55
917.548	12014.44
917.859	12001.56
918.171	11933.09
918.482	11854.45
918.794	11782.59
919.105	11803.38
919.416	11758.41
919.727	11673.89
920.038	11605.42
920.349	11587.11
920.66	11505.76
920.971	11490.84
921.282	11438.41
921.593	11344.86
921.903	11342.37
922.214	11328.59
922.525	11216.95
922.835	11158.42
923.146	11153.9
923.456	11104.19
923.767	11110.29
924.077	11070.74
924.387	10978.09
924.697	10918.65
925.008	10849.73
925.318	10803.4
925.628	10813.57
925.938	10762.27
926.248	10660.36
926.558	10600.24
926.867	10647.47
927.177	10526.35
927.487	10499.68
927.796	10425.79
928.106	10473.92
928.416	10396.18
928.725	10351.66
929.034	10290.42
929.344	10280.03
929.653	10213.59
929.962	10148.28
930.271	10134.72
930.581	10066.02
930.89	10041.84
931.199	10008.85
931.508	9979.02
931.817	9980.37
932.125	9931.33
932.434	9855.4
932.743	9761.85
933.051	9728.4
933.36	9691.57
933.669	9596.2
933.977	9597.33
934.286	9525.92
934.594	9501.97
934.902	9458.8
935.21	9401.86
935.519	9424.46
935.827	9368.41
936.135	9260.39
936.443	9235.31
936.751	9218.13
937.059	9191.92
937.367	9122.77
937.674	9096.55
937.982	9101.98
938.29	9059.95
938.597	9030.34
938.905	8923.9
939.213	8876.45
939.52	8888.65
939.827	8895.2
940.135	8871.02
940.442	8783.79
940.749	8694.98
941.056	8741.31
941.363	8667.64
941.67	8655.89
941.977	8515.78
942.284	8579.51
942.591	8488.43
942.898	8494.76
943.205	8476.01
943.511	8410.47
943.818	8396.46
944.125	8300.87
944.431	8254.77
944.738	8227.2
945.044	8245.73
945.35	8182.68
945.657	8054.55
945.963	8159.86
946.269	8021.78
946.575	8032.18
946.881	7933.42
947.187	7931.61
947.493	7908.56
947.799	7880.54
948.105	7852.97
948.41	7730.26
948.716	7802.8
949.022	7706.99
949.327	7801.67
949.633	7598.29
949.938	7614.79
950.244	7652.52
950.549	7562.13
950.854	7486.65
951.16	7549.48
951.465	7513.32
951.77	7436.26
952.075	7428.8
952.38	7351.74
952.685	7370.72
952.99	7256.83
953.294	7257.96
953.599	7226.55
953.904	7209.6
954.209	7092.09
954.513	7146.55
954.818	7109.49
955.122	7047.79
955.426	7029.94
955.731	6982.03
956.035	6966.22
956.339	6958.31
956.643	6882.6
956.948	6864.52
957.252	6876.27
957.556	6787.01
957.86	6825.2
958.163	6798.99
958.467	6732.77
958.771	6768.71
959.075	6700.69
959.378	6637.64
959.682	6632.89
959.985	6603.06
960.289	6516.51
960.592	6572.33
960.896	6477.64
961.199	6486.68
961.502	6499.56
961.805	6452.33
962.108	6378.66
962.411	6358.77
962.714	6313.8
963.017	6302.96
963.32	6308.61
963.623	6292.33
963.926	6243.3
964.228	6183.18
964.531	6200.59
964.833	6120.59
965.136	6104.32
965.438	6105.22
965.741	6003.3
966.043	6018.67
966.345	5957.2
966.648	5946.13
966.95	5926.24
967.252	5840.82
967.554	5907.03
967.856	5879.69
968.158	5828.17
968.46	5825.45
968.761	5789.3
969.063	5747.04
969.365	5723.99
969.666	5671.11
969.968	5660.49
970.269	5676.53
970.571	5637.89
970.872	5578.46
971.174	5548.4
971.475	5550.89
971.776	5528.74
972.077	5458.91
972.378	5446.48
972.679	5444.67
972.98	5434.28
973.281	5379.14
973.582	5391.34
973.883	5350.21
974.183	5337.11
974.484	5284
974.785	5252.81
975.085	5249.42
975.386	5247.39
975.686	5204.68
975.986	5167.62
976.287	5145.47
976.587	5063.67
976.887	5135.3
977.187	5124.23
977.487	5067.28
977.787	5045.59
978.087	5014.85
978.387	4970.34
978.687	5004.68
978.987	4950.9
979.286	4922.88
979.586	4929.43
979.885	4860.06
980.185	4832.49
980.484	4850.56
980.784	4783.22
981.083	4822.32
981.382	4808.31
981.682	4774.18
981.981	4728.99
982.28	4702.09
982.579	4604.7
982.878	4632.94
983.177	4651.25
983.475	4582.32
983.774	4616.9
984.073	4558.59
984.372	4564.7
984.67	4540.06
984.969	4494.19
985.267	4483.34
985.566	4453.96
985.864	4448.77
986.162	4422.33
986.461	4371.93
986.759	4396.79
987.057	4317.92
987.355	4281.09
987.653	4293.07
987.951	4284.93
988.249	4265.72
988.547	4281.31
988.844	4223.69
989.142	4265.27
989.44	4169.68
989.737	4160.19
990.035	4143.92
990.332	4098.27
990.63	4126.52
990.927	4115.67
991.224	4111.15
991.521	4048.1
991.819	4015.78
992.116	4020.98
992.413	3969.91
992.71	3989.12
993.006	4011.04
993.303	3985.5
993.6	3940.76
993.897	3887.43
994.193	3888.56
994.49	3823.25
994.787	3822.34
995.083	3808.78
995.379	3784.15
995.676	3806.52
995.972	3785.28
996.268	3754.32
996.565	3729.01
996.861	3701.67
997.157	3669.8
997.453	3639.07
997.749	3629.58
998.044	3582.58
998.34	3634.33
998.636	3603.82
998.932	3574.21
999.227	3554.78
999.523	3546.64
999.818	3492.18
1000.114	3482.92
1000.409	3452.41
1000.704	3419.42
1001	3433.65
1001.295	3394.78
1001.59	3400.43
1001.885	3372.86
1002.18	3350.49
1002.475	3332.41
1002.77	3307.55
1003.065	3274.79
1003.359	3295.35
1003.654	3268.69
1003.949	3247.89
1004.243	3192.08
1004.538	3191.85
1004.832	3212.87
1005.127	3168.8
1005.421	3180.78
1005.715	3115.02
1006.009	3101.23
1006.304	3083.61
1006.598	3090.61
1006.892	3052.42
1007.186	3021.91
1007.48	2990.27
1007.773	2973.78
1008.067	2954.12
1008.361	2952.54
1008.655	2977.17
1008.948	2923.16
1009.242	2912.76
1009.535	2884.74
1009.829	2859.66
1010.122	2875.48
1010.415	2831.86
1010.708	2803.39
1011.001	2774.69
1011.295	2809.26
1011.588	2769.04
1011.881	2736.04
1012.173	2727
1012.466	2745.08
1012.759	2714.58
1013.052	2669.38
1013.344	2640
1013.637	2687.68
1013.93	2661.7
1014.222	2619.66
1014.514	2591.19
1014.807	2624.41
1015.099	2557.07
1015.391	2541.7
1015.683	2557.74
1015.976	2574.24
1016.268	2487.01
1016.56	2450.4
1016.851	2465.54
1017.143	2457.18
1017.435	2428.93
1017.727	2407.24
1018.018	2428.93
1018.31	2402.95
1018.602	2386.45
1018.893	2351.2
1019.185	2353.23
1019.476	2325.21
1019.767	2288.6
1020.058	2274.14
1020.35	2286.11
1020.641	2240.46
1020.932	2261.03
1021.223	2218.09
1021.514	2223.97
1021.804	2181.93
1022.095	2155.72
1022.386	2160.92
1022.677	2146
1022.967	2150.3
1023.258	2115.5
1023.548	2077.3
1023.839	2085.67
1024.129	2077.3
1024.419	2060.36
1024.709	2054.03
1025	2015.38
1025.29	2012.67
1025.58	1981.49
1025.87	1984.88
1026.16	1975.84
1026.449	1943.07
1026.739	1904.43
1027.029	1944.65
1027.319	1903.3
1027.608	1897.65
1027.898	1874.6
1028.187	1866.69
1028.477	1835.95
1028.766	1854.26
1029.055	1853.36
1029.344	1814.71
1029.634	1799.57
1029.923	1807.03
1030.212	1766.35
1030.501	1784.2
1030.79	1748.05
1031.078	1733.36
1031.367	1754.15
1031.656	1692
1031.945	1687.48
1032.233	1687.48
1032.522	1694.26
1032.81	1671.89
1033.099	1660.14
1033.387	1660.14
1033.675	1638.45
1033.963	1638.9
1034.251	1589.63
1034.54	1605.45
1034.828	1606.58
1035.116	1557.54
1035.403	1553.7
1035.691	1548.5
1035.979	1572.01
1036.267	1548.28
1036.554	1536.3
1036.842	1521.84
1037.129	1516.64
1037.417	1501.5
1037.704	1497.66
1037.992	1468.51
1038.279	1459.24
1038.566	1442.52
1038.853	1442.52
1039.14	1442.52
