Data from 291_FLMS001491_005.txt Node
Date: Thu Apr 19 16:45:45 BST 2018
User: hsy
Spectrometer: FLMS00149
Trigger mode: 0
Integration Time (sec): 1.000000E-2
Scans to average: 10
Electric dark correction enabled: true
Nonlinearity correction enabled: false
Boxcar width: 0
XAxis mode: Wavelengths
Number of Pixels in Spectrum: 2048
>>>>>Begin Spectral Data<<<<<
341.393	-15
341.776	-15
342.16	-15
342.543	-49.57
342.927	-54.32
343.31	-63.59
343.693	-77.6
344.077	-72.85
344.46	-50.25
344.843	-38.95
345.226	-40.99
345.61	-24.26
345.993	-1.89
346.376	-7.99
346.759	-4.38
347.142	22.97
347.525	47.15
347.908	60.25
348.291	70.65
348.674	88.73
349.057	93.02
349.44	104.55
349.823	154.94
350.206	176.41
350.588	239.23
350.971	223.86
351.354	248.27
351.737	278.55
352.119	279.23
352.502	283.75
352.884	307.03
353.267	312.45
353.65	335.95
354.032	333.24
354.414	345.22
354.797	372.33
355.179	354.71
355.562	352
355.944	360.13
356.326	363.75
356.709	367.59
357.091	384.99
357.473	370.75
357.855	385.44
358.238	363.97
358.62	383.41
359.002	388.61
359.384	361.71
359.766	382.73
360.148	366.91
360.53	382.5
360.912	398.32
361.294	387.25
361.676	375.72
362.057	371.66
362.439	374.14
362.821	347.7
363.203	383.41
363.584	351.77
363.966	357.87
364.348	346.57
364.729	369.62
365.111	350.87
365.493	370.08
365.874	336.4
366.256	343.18
366.637	338.21
367.019	375.95
367.4	374.14
367.781	356.06
368.163	359
368.544	354.71
368.925	369.62
369.306	379.79
369.688	350.19
370.069	345.22
370.45	367.36
370.831	351.54
371.212	363.75
371.593	373.69
371.974	361.26
372.355	367.59
372.736	364.88
373.117	362.17
373.498	376.63
373.879	361.94
374.26	363.97
374.641	363.3
375.021	363.97
375.402	360.81
375.783	387.02
376.163	391.54
376.544	384.31
376.925	390.41
377.305	382.73
377.686	358.78
378.066	402.16
378.447	392.67
378.827	379.79
379.208	400.36
379.588	403.97
379.968	428.38
380.349	392.9
380.729	419.57
381.109	400.58
381.489	395.39
381.87	394.93
382.25	421.37
382.63	416.18
383.01	426.34
383.39	416.85
383.77	431.99
384.15	408.72
384.53	422.95
384.91	431.09
385.29	434.93
385.67	412.79
386.049	429.06
386.429	443.29
386.809	421.6
387.189	455.27
387.568	443.29
387.948	440.13
388.328	447.14
388.707	456.17
389.087	460.24
389.466	473.35
389.846	470.19
390.225	469.73
390.605	481.26
390.984	481.71
391.363	497.3
391.743	493.01
392.122	505.66
392.501	499.79
392.881	495.5
393.26	529.62
393.639	516.51
394.018	525.33
394.397	524.42
394.776	526.23
395.155	536.17
395.534	508.38
395.913	520.58
396.292	536.85
396.671	559.9
397.05	545.66
397.429	559.67
397.808	542.27
398.186	584.31
398.565	587.02
398.944	571.43
399.323	589.96
399.701	597.41
400.08	591.54
400.458	598.77
400.837	578.66
401.215	636.51
401.594	609.62
401.972	620.92
402.351	643.51
402.729	628.83
403.107	627.02
403.486	641.71
403.864	654.14
404.242	655.49
404.62	669.5
404.999	676.06
405.377	683.51
405.755	702.04
406.133	695.94
406.511	718.31
406.889	730.52
407.267	748.14
407.645	765.32
408.023	783.17
408.401	768.93
408.779	789.27
409.156	817.29
409.534	833.57
409.912	818.42
410.29	862.49
410.667	876.05
411.045	885.54
411.422	922.15
411.8	903.39
412.178	927.35
412.555	944.07
412.933	986.78
413.31	982.71
413.687	1008.25
414.065	1035.82
414.442	1034.92
414.819	1079.21
415.197	1090.51
415.574	1093.45
415.951	1102.26
416.328	1147.68
416.705	1156.5
417.082	1168.25
417.46	1158.98
417.837	1208.02
418.214	1197.4
418.591	1236.49
418.967	1207.57
419.344	1265.19
419.721	1267.23
420.098	1293.67
420.475	1298.64
420.852	1314.91
421.228	1323.04
421.605	1358.75
421.982	1376.6
422.358	1397.17
422.735	1391.74
423.111	1405.53
423.488	1469.71
423.864	1434.68
424.241	1485.07
424.617	1486.2
424.994	1555.81
425.37	1536.6
425.746	1558.29
426.123	1571.4
426.499	1593.32
426.875	1628.57
427.251	1655.92
427.627	1709.25
428.003	1716.93
428.379	1723.49
428.756	1761.22
429.132	1784.05
429.507	1793.31
429.883	1812.75
430.259	1859.53
430.635	1912.63
431.011	1881
431.387	1914.89
431.763	1964.84
432.138	1975
432.514	2006.64
432.89	2000.09
433.265	2077.15
433.641	2079.86
434.016	2138.84
434.392	2170.93
434.767	2221.55
435.143	2202.57
435.518	2255.68
435.894	2292.96
436.269	2353.07
436.644	2374.77
437.02	2403.02
437.395	2424.48
437.77	2479.17
438.145	2512.84
438.52	2525.95
438.895	2560.3
439.271	2555.33
439.646	2624.25
440.021	2650.92
440.395	2650.24
440.77	2685.95
441.145	2721.2
441.52	2743.35
441.895	2768.66
442.27	2792.16
442.645	2776.11
443.019	2863.79
443.394	2846.39
443.769	2899.05
444.143	2881.2
444.518	2930.01
444.892	2918.93
445.267	2979.95
445.641	3020.4
446.016	3015.43
446.39	3063.34
446.764	3060.4
447.139	3055.88
447.513	3109.44
447.887	3132.71
448.262	3148.08
448.636	3212.03
449.01	3236.67
449.384	3233.05
449.758	3278.02
450.132	3372.03
450.506	3338.13
450.88	3398.92
451.254	3319.38
451.628	3429.88
452.002	3463.33
452.376	3511.01
452.75	3531.57
453.123	3588.52
453.497	3596.43
453.871	3631.01
454.244	3725.24
454.618	3752.36
454.992	3826.48
455.365	3836.88
455.739	3925.24
456.112	3969.08
456.486	4026.48
456.859	4058.57
457.232	4170.65
457.606	4186.02
457.979	4213.14
458.352	4323.64
458.725	4341.72
459.099	4408.61
459.472	4472.34
459.845	4519.57
460.218	4574.94
460.591	4634.82
460.964	4682.73
461.337	4709.4
461.71	4893.35
462.083	4886.57
462.456	4933.34
462.829	4901.93
463.201	5040.01
463.574	5034.36
463.947	5140.8
464.32	5206.33
464.692	5296.27
465.065	5311.87
465.438	5401.36
465.81	5442.03
466.183	5500.79
466.555	5641.12
466.928	5647.9
467.3	5647.45
467.672	5749.82
468.045	5927.67
468.417	5865.98
468.789	5937.61
469.161	6030.94
469.534	6172.18
469.906	6251.05
470.278	6261.45
470.65	6348
471.022	6508.67
471.394	6602.45
471.766	6633.64
472.138	6783.24
472.51	6855.33
472.882	6932.84
473.253	7011.03
473.625	7108.65
473.997	7255.09
474.369	7326.73
474.74	7329.67
475.112	7481.98
475.484	7633.84
475.855	7778.92
476.227	7878.58
476.598	8034.73
476.97	8182.52
477.341	8276.99
477.713	8350.2
478.084	8436.53
478.455	8724.66
478.827	8749.06
479.198	9001.26
479.569	9015.95
479.94	9273.8
480.311	9435.37
480.682	9573.67
481.053	9756.49
481.424	9842.37
481.795	10001.69
482.166	10190.38
482.537	10330.27
482.908	10543.37
483.279	10637.38
483.65	10785.39
484.021	11081.66
484.391	11100.87
484.762	11307.19
485.133	11343.8
485.503	11524.36
485.874	11766.39
486.244	11769.55
486.615	12078.47
486.985	12238.01
487.356	12495.63
487.726	12601.84
488.097	12871.89
488.467	12887.03
488.837	13145.33
489.207	13360.02
489.578	13528.83
489.948	13769.95
490.318	13872.09
490.688	13870.96
491.058	14089.71
491.428	14335.36
491.798	14369.71
492.168	14692.86
492.538	14638.4
492.908	14868
493.278	15090.59
493.648	15086.98
494.017	15308.89
494.387	15361.32
494.757	15585.49
495.126	15743
495.496	15811.7
495.866	15900.51
496.235	16044.01
496.605	16107.06
496.974	16230.22
497.344	16442.87
497.713	16419.82
498.082	16615.98
498.452	16608.29
498.821	16837.89
499.19	16791.56
499.559	16974.38
499.928	17069.52
500.298	17068.62
500.667	17314.49
501.036	17314.04
501.405	17352.68
501.774	17464.54
502.143	17558.55
502.512	17701.6
502.88	17875.15
503.249	17796.74
503.618	17940.01
503.987	17999.89
504.356	18076.28
504.724	18157.4
505.093	18227.91
505.462	18380.22
505.83	18488.92
506.199	18519.43
506.567	18677.84
506.936	18771.85
507.304	18931.62
507.672	19071.96
508.041	19024.73
508.409	19167.32
508.777	19313.53
509.145	19345.85
509.514	19412.06
509.882	19542.9
510.25	19544.71
510.618	19720.53
510.986	19699.06
511.354	19923.46
511.722	20020.41
512.09	20174.3
512.458	20068.77
512.826	20309.44
513.193	20380.62
513.561	20376.55
513.929	20627.4
514.297	20727.51
514.664	20895.41
515.032	20916.88
515.4	21037.55
515.767	21093.6
516.135	21248.85
516.502	21096.54
516.869	21388.51
517.237	21539.91
517.604	21352.8
517.972	21717.54
518.339	21797.76
518.706	21908.72
519.073	21952.56
519.44	21983.97
519.808	22266.67
520.175	22295.6
520.542	22458.76
520.909	22618.76
521.276	22668.02
521.643	22875.25
522.009	23016.94
522.376	23146.2
522.743	23229.13
523.11	23417.83
523.477	23573.53
523.843	23584.61
524.21	23881.1
524.577	24010.81
524.943	24180.75
525.31	24192.73
525.676	24570.57
526.043	24557.46
526.409	24639.04
526.776	24835.87
527.142	24963.78
527.508	24962.87
527.874	25183.43
528.241	25277.89
528.607	25330.55
528.973	25648.51
529.339	25512.01
529.705	25829.07
530.071	25926.92
530.437	25959.91
530.803	26135.27
531.169	26192.67
531.535	26139.57
531.901	26207.81
532.267	26395.61
532.632	26439.22
532.998	26378.88
533.364	26535.04
533.73	26607.8
534.095	26753.79
534.461	26759.21
534.826	26796.5
535.192	26946.1
535.557	27104.06
535.923	26997.62
536.288	27058.64
536.653	27145.19
537.019	27124.63
537.384	27122.82
537.749	27199.65
538.114	27111.97
538.479	27266.99
538.845	27225.64
539.21	27082.59
539.575	27120.33
539.94	27237.84
540.305	27378.63
540.67	27237.62
541.034	27270.38
541.399	27298.41
541.764	27365.07
542.129	27289.82
542.494	27316.26
542.858	27371.62
543.223	27262.25
543.587	27402.58
543.952	27208.69
544.316	27391.29
544.681	27257.5
545.045	27336.6
545.41	27417.95
545.774	27335.02
546.138	27329.37
546.503	27316.26
546.867	27295.24
547.231	27356.94
547.595	27449.81
547.959	27381.34
548.324	27313.55
548.688	27380.21
549.052	27435.13
549.416	27264.96
549.779	27220.89
550.143	27196.04
550.507	27388.8
550.871	27298.41
551.235	27125.53
551.599	27349.25
551.962	27368.46
552.326	27272.64
552.689	27344.28
553.053	27144.06
553.417	27290.05
553.78	27412.75
554.143	27299.08
554.507	27405.75
554.87	27370.95
555.234	27556.7
555.597	27411.4
555.96	27446.2
556.323	27366.88
556.686	27379.08
557.05	27491.62
557.413	27465.63
557.776	27462.02
558.139	27573.88
558.502	27549.02
558.865	27525.29
559.228	27645.74
559.59	27602.13
559.953	27706.31
560.316	27876.02
560.679	27837.83
561.041	27701.11
561.404	27843.02
561.767	27939.29
562.129	27832.4
562.492	28087.76
562.854	28026.07
563.217	27963.02
563.579	28134.99
563.941	28094.77
564.304	28149.23
564.666	28296.8
565.028	28328.89
565.39	28271.49
565.753	28396.68
566.115	28440.75
566.477	28454.53
566.839	28471.48
567.201	28812.27
567.563	28684.13
567.925	28833.28
568.287	28722.55
568.648	28708.54
569.01	28897.01
569.372	29111.47
569.734	28964.35
570.095	29241.41
570.457	29328.64
570.819	29291.35
571.18	29161.18
571.542	29489.08
571.903	29354.17
572.265	29536.77
572.626	29628.97
572.987	29572.47
573.349	29622.41
573.71	29678.68
574.071	29665.35
574.432	29900.6
574.794	30009.3
575.155	29899.69
575.516	29940.82
575.877	29927.04
576.238	29997.54
576.599	30174.94
576.96	30225.11
577.32	30085.68
577.681	30083.64
578.042	30382.85
578.403	30345.11
578.763	30220.82
579.124	30371.32
579.485	30422.62
579.845	30488.61
580.206	30424.88
580.566	30369.96
580.927	30395.05
581.287	30486.12
581.648	30543.74
582.008	30670.52
582.368	30680.01
582.728	30652.89
583.089	30591.88
583.449	30675.27
583.809	30633.69
584.169	30662.39
584.529	30721.82
584.889	30951.64
585.249	30562.28
585.609	30496.29
585.969	30896.28
586.329	30725.44
586.688	30802.04
587.048	30786.22
587.408	30728.37
587.768	30821.48
588.127	30732.89
588.487	30724.76
588.846	31103.73
589.206	30703.06
589.565	30776.28
589.925	30983.73
590.284	30869.61
590.643	31046.56
591.003	31078.87
591.362	31154.12
591.721	31055.14
592.08	31113.22
592.44	31229.83
592.799	31075.48
593.158	31111.19
593.517	31111.87
593.876	31184.41
594.235	31162.03
594.593	31229.15
594.952	31316.83
595.311	31124.75
595.67	31322.93
596.029	31458.52
596.387	31369.94
596.746	31541.01
597.104	31298.98
597.463	31348.7
597.822	31454.68
598.18	31469.6
598.538	31401.58
598.897	31717.27
599.255	31383.72
599.613	31741.45
599.972	31547.56
600.33	31713.66
600.688	31680.44
601.046	31701.45
601.404	31934.44
601.762	31816.93
602.12	31931.51
602.478	31997.94
602.836	31936.25
603.194	31892.64
603.552	31883.14
603.91	31855.12
604.268	32013.76
604.625	31885.4
604.983	32117.49
605.341	31838.17
605.698	32142.35
606.056	32274.55
606.413	32045.17
606.771	32374.21
607.128	32385.05
607.485	32225.06
607.843	32385.73
608.2	32459.63
608.557	32549.12
608.914	32440.87
609.272	32624.82
609.629	32899.84
609.986	32754.31
610.343	32692.16
610.7	33052.15
611.057	32818.04
611.414	32784.59
611.771	32915.43
612.127	33041.31
612.484	33053.51
612.841	33192.04
613.198	33227.29
613.554	33107.52
613.911	33293.28
614.267	33276.78
614.624	33199.95
614.98	33393.16
615.337	33655.98
615.693	33581.63
616.05	33613.49
616.406	33791.57
616.762	33690.78
617.118	33612.82
617.475	33593.16
617.831	33938.68
618.187	33913.15
618.543	33848.52
618.899	34088.06
619.255	34078.34
619.611	34048.51
619.967	34120.15
620.323	34178.9
620.678	34113.82
621.034	34134.38
621.39	34237.43
621.746	34182.52
622.101	34580.02
622.457	34233.82
622.812	34458.22
623.168	34447.82
623.523	34427.26
623.879	34472.91
624.234	34401.72
624.589	34519.46
624.945	34524.88
625.3	34578.89
625.655	34641.94
626.01	34569.18
626.365	34541.38
626.72	34510.42
627.075	34429.07
627.43	34610.76
627.785	34594.71
628.14	34594.49
628.495	34596.75
628.85	34554.26
629.205	34539.35
629.559	34676.97
629.914	34435.17
630.269	34425.22
630.623	34367.83
630.978	34335.06
631.332	34486.69
631.687	34406.92
632.041	34272.91
632.396	34509.29
632.75	34234.5
633.104	34331.22
633.459	34250.77
633.813	34326.24
634.167	34117.89
634.521	34159.02
634.875	34206.93
635.229	34237.89
635.583	33981.62
635.937	34054.61
636.291	34014.84
636.645	34013.26
636.999	33851.23
637.352	33944.56
637.706	33684.23
638.06	33848.29
638.413	33825.92
638.767	33653.04
639.121	33634.29
639.474	33561.29
639.828	33551.8
640.181	33646.49
640.534	33712.25
640.888	33422.77
641.241	33340.06
641.594	33505.47
641.947	33555.64
642.301	33279.04
642.654	33489.2
643.007	33320.4
643.36	33496.21
643.713	33375.76
644.066	33439.71
644.419	33329.21
644.771	32907.07
645.124	32605.84
645.477	32627.31
645.83	32504.6
646.182	32476.58
646.535	32399.06
646.888	32521.32
647.24	32468.89
647.593	32524.26
647.945	32351.16
648.298	32443.36
648.65	32217.15
649.002	32087.66
649.355	32229.35
649.707	32104.38
650.059	32184.83
650.411	32604.71
650.763	32798.37
651.115	33237.69
651.467	33020.52
651.819	32998.37
652.171	32979.16
652.523	33011.48
652.875	33053.51
653.227	32928.77
653.578	33211.02
653.93	33035.88
654.282	32960.86
654.633	32961.31
654.985	32996.11
655.337	33127.18
655.688	32946.17
656.039	33153.17
656.391	32969.22
656.742	33078.37
657.094	33065.49
657.445	33063.68
657.796	33152.04
658.147	33086.73
658.498	33077.24
658.849	33235.43
659.2	33157.46
659.551	33130.57
659.902	33371.69
660.253	33163.34
660.604	33330.56
660.955	33153.17
661.306	33336.67
661.656	33225.71
662.007	33354.07
662.358	33206.5
662.708	33496.44
663.059	33265.48
663.409	33252.6
663.76	33444.23
664.11	33476.78
664.461	33461.86
664.811	33447.17
665.161	33441.3
665.511	33303.45
665.862	33589.09
666.212	33511.35
666.562	33506.6
666.912	33513.38
667.262	33421.41
667.612	33543.67
667.962	33536.66
668.312	33385.03
668.662	33579.82
669.011	33654.4
669.361	33502.76
669.711	33513.38
670.06	33376.66
670.41	33365.37
670.76	33493.72
671.109	33528.53
671.459	33421.64
671.808	33459.6
672.157	33416.44
672.507	33390.9
672.856	33195.65
673.205	33288.76
673.554	33251.02
673.904	33275.88
674.253	33482.65
674.602	33277.01
674.951	32975.32
675.3	32676.12
675.649	33211.02
675.998	33233.62
676.346	33188.2
676.695	33286.05
677.044	32961.08
677.393	33213.05
677.741	33320.4
678.09	33068.42
678.438	33126.05
678.787	33089.21
679.135	32948.43
679.484	32802.89
679.832	32960.4
680.181	32917.02
680.529	32860.52
680.877	32726.06
681.225	32634.76
681.573	33004.02
681.922	32607.87
682.27	32563.8
682.618	32577.14
682.966	32409.23
683.314	32482.23
683.661	32293.98
684.009	32244.94
684.357	32230.48
684.705	32143.25
685.053	32080.43
685.4	32017.6
685.748	31788.23
686.095	31804.95
686.443	31652.64
686.79	31675.69
687.138	31880.66
687.485	31717.95
687.832	31382.37
688.18	31360.67
688.527	31149.15
688.874	31167.23
689.221	31164.07
689.568	30994.58
689.915	30906.67
690.262	30899.67
690.609	30795.26
690.956	30595.95
691.303	30612.67
691.65	30441.83
691.997	30392.79
692.344	30242.51
692.69	30240.02
693.037	30096.3
693.383	29930.65
693.73	29908.51
694.077	29772.01
694.423	29648.4
694.769	29461.06
695.116	29488.63
695.462	29418.8
695.808	29228.75
696.155	29252.71
696.501	28982.2
696.847	29048.19
697.193	28782.89
697.539	28687.3
697.885	28570.46
698.231	28540.63
698.577	28353.75
698.923	28330.47
699.269	28103.13
699.614	28020.65
699.96	27846.41
700.306	27883.7
700.651	27633.54
700.997	27624.95
701.342	27541.11
701.688	27430.83
702.033	27396.03
702.379	27409.82
702.724	27121.01
703.069	27189.71
703.415	26739.1
703.76	26751.75
704.105	26777.06
704.45	26642.15
704.795	26549.5
705.14	26456.85
705.485	26471.08
705.83	26259.11
706.175	26335.49
706.52	26190.41
706.865	26037.65
707.209	25897.09
707.554	25849.18
707.899	25880.59
708.243	25751.78
708.588	25745.23
708.932	25488.51
709.277	25559.7
709.621	25492.35
709.966	25361.73
710.31	25363.99
710.654	25157.9
710.998	25198.35
711.342	25197.9
711.687	25058.24
712.031	25110.89
712.375	24948.19
712.719	24930.56
713.063	24889.88
713.407	24966.72
713.75	24851.47
714.094	24739.15
714.438	24589.1
714.782	24618.93
715.125	24630.23
715.469	24757.46
715.812	24381.87
716.156	24385.26
716.499	24490.8
716.843	24568.76
717.186	24389.1
717.53	24512.94
717.873	24457.58
718.216	24470.68
718.559	24301.88
718.902	24151.82
719.246	24326.73
719.589	24216.91
719.932	24145.95
720.275	24159.96
720.617	24304.36
720.96	24162.44
721.303	24262.33
721.646	24207.41
721.989	24112.95
722.331	24095.33
722.674	24069.79
723.016	24118.83
723.359	24021.66
723.701	24072.5
724.044	24125.38
724.386	24047.42
724.729	24053.75
725.071	24072.95
725.413	24063.92
725.755	24016.23
726.097	24030.92
726.439	23979.62
726.782	24001.32
727.124	24121.31
727.465	24113.63
727.807	23974.43
728.149	24084.03
728.491	24014.43
728.833	24143.24
729.175	24104.37
729.516	24161.31
729.858	24105.27
730.199	24273.85
730.541	24027.76
730.882	24182.78
731.224	24243.35
731.565	24074.99
731.906	24187.3
732.248	24251.25
732.589	24104.59
732.93	24173.52
733.271	24257.81
733.612	24316.56
733.953	24366.96
734.294	24341.42
734.635	24216.23
734.976	24505.71
735.317	24456.45
735.658	24483.57
735.999	24385.49
736.339	24336.68
736.68	24610.79
737.021	24514.52
737.361	24559.72
737.702	24739.15
738.042	24618.25
738.383	24723.56
738.723	24848.3
739.063	24886.27
739.404	24888.75
739.744	24914.29
740.084	24882.2
740.424	25032.25
740.764	25140.27
741.104	25266.6
741.444	25192.93
741.784	25294.62
742.124	25390.43
742.464	25359.7
742.804	25452.58
743.143	25544.78
743.483	25676.98
743.823	25765.11
744.162	25880.59
744.502	25799.24
744.841	25900.48
745.181	26222.5
745.52	26238.55
745.86	26311.31
746.199	26394.02
746.538	26594.47
746.877	26885.76
747.216	26827.23
747.556	27019.32
747.895	27163.72
748.234	27284.62
748.573	27363.04
748.911	27417.27
749.25	27659.53
749.589	27707.66
749.928	27956.69
750.267	28080.76
750.605	28151.27
750.944	28417.7
751.283	28420.18
751.621	28632.83
751.96	28699.5
752.298	28932.26
752.636	29102.2
752.975	29247.51
753.313	29305.81
753.651	29662.64
753.989	29770.66
754.327	30040.71
754.666	29977.66
755.004	30342.62
755.342	30417.65
755.679	30724.53
756.017	30597.75
756.355	31016.5
756.693	31031.19
757.031	31390.95
757.368	31319.09
757.706	31629.82
758.044	31645.41
758.381	31884.27
758.719	31968.34
759.056	32182.8
759.394	32263.25
759.731	32223.25
760.068	32457.59
760.405	32625.27
760.743	32596.8
761.08	32891.25
761.417	32968.31
761.754	32982.1
762.091	33302.99
762.428	33235.43
762.765	33275.42
763.102	33511.58
763.438	33493.05
763.775	33441.75
764.112	33591.57
764.449	33724.68
764.785	33785.47
765.122	33805.35
765.458	33852.13
765.795	33860.95
766.131	34023.43
766.467	34190.2
766.804	33988.4
767.14	34109.3
767.476	34134.61
767.812	34238.56
768.148	34342.74
768.485	34280.82
768.821	34149.07
769.157	34123.09
769.492	34156.76
769.828	34375.06
770.164	34153.14
770.5	34141.16
770.836	34260.26
771.171	34209.19
771.507	34230.88
771.842	33928.29
772.178	34104.56
772.513	34235.85
772.849	33953.37
773.184	34113.82
773.519	34138
773.855	33928.51
774.19	34034.27
774.525	33914.5
774.86	33850.78
775.195	33813.94
775.53	33773.26
775.865	33695.53
776.2	33555.19
776.535	33346.84
776.87	33361.98
777.205	33282.2
777.539	33319.49
777.874	33333.05
778.209	32945.49
778.543	33101.87
778.878	32891.48
779.212	32938.94
779.547	32894.64
779.881	32863.68
780.215	32747.3
780.55	32715.21
780.884	32449.46
781.218	32362.91
781.552	32473.64
781.886	32425.05
782.22	32247.2
782.554	32140.31
782.888	31915.23
783.222	31781.9
783.556	31785.52
783.889	31766.54
784.223	31511.4
784.557	31629.82
784.89	31639.54
785.224	31308.92
785.557	31231.64
785.891	31211.52
786.224	31209.94
786.558	31157.74
786.891	30957.07
787.224	30808.82
787.557	30736.73
787.891	30701.93
788.224	30567.93
788.557	30582.84
788.89	30407.93
789.223	30435.27
789.556	30192.12
789.888	30206.8
790.221	30032.57
790.554	29849.3
790.887	29948.05
791.219	29814.27
791.552	29762.52
791.884	29655.86
792.217	29538.12
792.549	29489.76
792.882	29222.2
793.214	29133.61
793.546	29264.23
793.879	29191.24
794.211	28919.83
794.543	28977.46
794.875	28906.95
795.207	28903.34
795.539	28791.02
795.871	28890.23
796.203	28661.08
796.535	28418.38
796.867	28610.46
797.198	28328.66
797.53	28222.45
797.862	28016.13
798.193	28109.23
798.525	28057.03
798.856	28086.41
799.188	27801.44
799.519	27737.49
799.85	27636.93
800.182	27574.56
800.513	27690.49
800.844	27418.4
801.175	27557.38
801.506	27553.54
801.837	27348.57
802.168	27117.85
802.499	27251.4
802.83	27145.19
803.161	27003.95
803.491	27068.58
803.822	27064.74
804.153	26793.79
804.483	26690.06
804.814	26568.93
805.145	26637.41
805.475	26571.19
805.805	26416.4
806.136	26433.8
806.466	26290.3
806.796	26415.94
807.126	26133.24
807.457	26117.65
807.787	26154.26
808.117	26070.42
808.447	26018.21
808.777	26175.95
809.107	25797.88
809.436	25785.23
809.766	25807.37
810.096	25741.61
810.426	25600.15
810.755	25707.94
811.085	25580.71
811.414	25663.42
811.744	25338.68
812.073	25478.12
812.403	25400.38
812.732	25236.77
813.061	25303.43
813.39	25096.43
813.719	25007.39
814.049	25212.81
814.378	25135.07
814.707	25055.53
815.036	25003.55
815.365	24930.79
815.693	24702.09
816.022	24759.04
816.351	24535.32
816.68	24616.9
817.008	24587.97
817.337	24398.6
817.665	24413.51
817.994	24450.35
818.322	24536.67
818.651	24274.53
818.979	24283.57
819.307	24450.8
819.636	24311.14
819.964	24097.59
820.292	24266.62
820.62	24125.61
820.948	24178.94
821.276	24281.08
821.604	24112.05
821.932	24144.14
822.259	24144.37
822.587	24103.69
822.915	24105.04
823.243	24122.67
823.57	24082.45
823.898	24193.4
824.225	24095.33
824.553	24059.62
824.88	24060.75
825.207	24106.17
825.535	24079.96
825.862	24233.18
826.189	24007.42
826.516	24321.08
826.843	24262.33
827.17	24312.72
827.497	24284.7
827.824	24333.06
828.151	24251.48
828.478	24227.53
828.805	24367.64
829.131	24205.83
829.458	24381.42
829.785	24116.12
830.111	24256.23
830.438	24378.03
830.764	24163.35
831.09	24293.74
831.417	24103.46
831.743	24416.22
832.069	24298.71
832.395	24218.04
832.722	24293.06
833.048	24157.7
833.374	24300.97
833.7	24131.48
834.026	24253.97
834.351	24177.13
834.677	24242.67
835.003	24162.22
835.329	24153.63
835.654	24084.03
835.98	23954.77
836.306	24038.15
836.631	23930.81
836.956	24111.15
837.282	24097.13
837.607	23971.94
837.932	23900.53
838.258	23903.92
838.583	23952.51
838.908	23825.05
839.233	23844.71
839.558	23709.8
839.883	23763.13
840.208	23646.75
840.533	23632.06
840.858	23624.38
841.182	23640.88
841.507	23591.16
841.832	23414.44
842.156	23486.3
842.481	23421.67
842.805	23272.52
843.13	23287.44
843.454	23391.62
843.778	23240.89
844.103	23216.48
844.427	23107.33
844.751	23171.28
845.075	23127.89
845.399	23026.43
845.723	22935.81
846.047	22920.89
846.371	22666.44
846.695	22718.41
847.019	22552.99
847.343	22505.54
847.666	22441.81
847.99	22471.64
848.313	22200.91
848.637	22232.33
848.96	22061.48
849.284	22123.63
849.607	21935.16
849.931	21886.35
850.254	21762.05
850.577	21673.24
850.9	21565.45
851.223	21508.95
851.546	21389.64
851.869	21405
852.192	21386.47
852.515	21155.52
852.838	21091.79
853.161	20996.88
853.483	21023.77
853.806	20945.81
854.129	20934.51
854.451	20885.69
854.774	20665.13
855.096	20599.6
855.419	20602.31
855.741	20533.39
856.063	20338.14
856.385	20408.42
856.708	20323.67
857.03	20321.41
857.352	20296.78
857.674	20153.74
857.996	20095.66
858.318	19934.31
858.64	19982.44
858.961	19831.26
859.283	19803.24
859.605	19749
859.926	19772.5
860.248	19704.26
860.57	19464.04
860.891	19575.45
861.212	19544.26
861.534	19475.79
861.855	19447.09
862.176	19481.44
862.498	19414.09
862.819	19484.37
863.14	19293.19
863.461	19412.74
863.782	19265.4
864.103	19189.92
864.424	19173.2
864.745	19283.93
865.065	19169.35
865.386	19062.46
865.707	19150.6
866.027	19044.84
866.348	18983.37
866.668	18979.98
866.989	18943.15
867.309	18789.03
867.63	18761.68
867.95	18914.22
868.27	18669.25
868.59	18809.36
868.91	18693.66
869.23	18714.9
869.55	18561.91
869.87	18661.35
870.19	18572.76
870.51	18587.9
870.83	18578.18
871.15	18448.92
871.469	18431.52
871.789	18497.06
872.109	18391.97
872.428	18331.64
872.748	18474.01
873.067	18297.97
873.386	18356.04
873.706	18277.17
874.025	18261.13
874.344	18121.47
874.663	18126.44
874.982	18047.35
875.301	18148.14
875.62	17972.55
875.939	17975.94
876.258	17971.87
876.577	17844.19
876.896	17997.41
877.214	17925.55
877.533	17971.65
877.852	17989.95
878.17	17939.78
878.489	17918.54
878.807	17729.84
879.125	17764.87
879.444	17721.48
879.762	17643.75
880.08	17685.33
880.398	17622.5
880.716	17612.79
881.034	17559
881.352	17506.8
881.67	17465.44
881.988	17484.65
882.306	17345.45
882.624	17358.78
882.941	17342.28
883.259	17217.09
883.577	17285.34
883.894	17247.6
884.212	17173.47
884.529	17115.4
884.846	16972.8
885.164	16996.3
885.481	16948.4
885.798	17007.6
886.115	16873.6
886.432	16837.44
886.75	16947.04
887.067	16848.74
887.383	16784.56
887.7	16835.4
888.017	16575.98
888.334	16669.31
888.651	16681.51
888.967	16566.49
889.284	16376.43
889.6	16466.37
889.917	16409.43
890.233	16374.63
890.55	16393.83
890.866	16309.32
891.182	16317.9
891.498	16208.3
891.815	16049.21
892.131	16112.94
892.447	16057.57
892.763	16018.48
893.079	15952.26
893.395	15996.56
893.71	15909.55
894.026	15871.14
894.342	15874.75
894.657	15661.42
894.973	15759.27
895.289	15760.86
895.604	15658.94
895.92	15572.84
896.235	15434.54
896.55	15407.42
896.865	15436.57
897.181	15329.23
897.496	15347.08
897.811	15199.74
898.126	15108.9
898.441	15136.92
898.756	15082.68
899.071	15034.32
899.386	15025.73
899.7	14853.76
900.015	14783.03
900.33	14645.86
900.644	14748.45
900.959	14767.66
901.273	14661.45
901.588	14588.46
901.902	14539.42
902.216	14529.25
902.531	14491.96
902.845	14409.25
903.159	14322.25
903.473	14272.31
903.787	14209.94
904.101	14160.45
904.415	14258.3
904.729	14093.1
905.042	13983.05
905.356	13931.75
905.67	13844.97
905.984	13888.36
906.297	13751.87
906.611	13731.76
906.924	13735.6
907.237	13681.14
907.551	13664.19
907.864	13589.61
908.177	13542.84
908.491	13524.98
908.804	13364.54
909.117	13311.88
909.43	13263.52
909.743	13242.5
910.056	13164.31
910.368	13046.8
910.681	13108.72
910.994	12982.17
911.307	12913.02
911.619	12856.75
911.932	12868.96
912.244	12711.22
912.557	12691.56
912.869	12665.57
913.181	12681.16
913.494	12606.36
913.806	12503.54
914.118	12522.75
914.43	12410.21
914.742	12342.64
915.054	12296.99
915.366	12284.79
915.678	12246.37
915.99	12105.81
916.302	12061.29
916.613	12103.55
916.925	12014.74
917.236	11952.37
917.548	11878.47
917.859	11870.34
918.171	11826.95
918.482	11782.43
918.794	11691.13
919.105	11671.25
919.416	11574.53
919.727	11524.58
920.038	11532.04
920.349	11447.07
920.66	11373.4
920.971	11436.22
921.282	11296.34
921.593	11299.05
921.903	11192.62
922.214	11189.45
922.525	11083.92
922.835	11091.15
923.146	10975.67
923.456	10971.83
923.767	10889.8
924.077	10971.83
924.387	10826.3
924.697	10777.26
925.008	10760.99
925.318	10735.68
925.628	10769.58
925.938	10638.51
926.248	10590.82
926.558	10519.19
926.867	10511.73
927.177	10443.93
927.487	10419.3
927.796	10347.67
928.106	10345.63
928.416	10292.75
928.725	10263.15
929.034	10185.18
929.344	10212.98
929.653	10089.82
929.962	10022.7
930.271	9976.6
930.581	9943.38
930.89	9934.34
931.199	9891.63
931.508	9803.05
931.817	9777.06
932.125	9780.68
932.434	9727.57
932.743	9637.63
933.051	9572.32
933.36	9653.45
933.669	9535.71
933.977	9496.61
934.286	9505.2
934.594	9400.8
934.902	9351.31
935.21	9314.02
935.519	9240.8
935.827	9292.33
936.135	9210.75
936.443	9203.97
936.751	9074.7
937.059	9130.97
937.367	8998.1
937.674	9022.28
937.982	9043.29
938.29	8959
938.597	8922.62
938.905	8893.47
939.213	8826.35
939.52	8757.43
939.827	8835.84
940.135	8755.84
940.442	8678.33
940.749	8704.09
941.056	8677.65
941.363	8611.89
941.67	8535.51
941.977	8506.81
942.284	8459.81
942.591	8429.3
942.898	8405.34
943.205	8384.55
943.511	8377.32
943.818	8359.7
944.125	8211.45
944.431	8147.95
944.738	8173.71
945.044	8177.55
945.35	8085.8
945.657	8104.33
945.963	8039.7
946.269	7987.73
946.575	7994.96
946.881	7933.72
947.187	7920.61
947.493	7804.23
947.799	7894.4
948.105	7771.46
948.41	7703.22
948.716	7685.14
949.022	7713.84
949.327	7625.03
949.633	7574.63
949.938	7591.81
950.244	7577.12
950.549	7470.91
950.854	7449.66
951.16	7436.33
951.465	7406.05
951.77	7357.91
952.075	7335.09
952.38	7301.64
952.685	7330.8
952.99	7183.46
953.294	7229.56
953.599	7171.48
953.904	7123.57
954.209	7053.74
954.513	7081.76
954.818	7049.67
955.122	7031.82
955.426	7043.8
955.731	7008.77
956.035	6914.99
956.339	6899.85
956.643	6870.24
956.948	6794.76
957.252	6805.84
957.556	6849.68
957.86	6780.98
958.163	6755.67
958.467	6662.79
958.771	6642.9
959.075	6676.8
959.378	6586.41
959.682	6572.62
959.985	6549.57
960.289	6495.34
960.592	6450.14
960.896	6414.21
961.199	6376.47
961.502	6406.75
961.805	6376.47
962.108	6265.06
962.411	6316.36
962.714	6255.8
963.017	6265.29
963.32	6235.46
963.623	6155.69
963.926	6172.86
964.228	6095.8
964.531	6133.77
964.833	6100.09
965.136	6068.68
965.438	6050.15
965.741	5985.07
966.043	5965.86
966.345	5904.62
966.648	5920.89
966.95	5896.94
967.252	5865.98
967.554	5891.96
967.856	5854.22
968.158	5755.24
968.46	5745.98
968.761	5744.17
969.063	5765.19
969.365	5669.37
969.666	5661.01
969.968	5615.59
970.269	5589.15
970.571	5566.55
970.872	5556.83
971.174	5545.31
971.475	5508.92
971.776	5488.13
972.077	5464.63
972.378	5398.87
972.679	5408.81
972.98	5425.76
973.281	5346.22
973.582	5345.54
973.883	5299.44
974.183	5299.66
974.484	5257.86
974.785	5237.29
975.085	5211.53
975.386	5230.74
975.686	5216.5
975.986	5128.14
976.287	5146.45
976.587	5104.87
976.887	5095.6
977.187	5087.69
977.487	5037.07
977.787	4985.09
978.087	4959.11
978.387	4963.4
978.687	4944.19
978.987	4938.32
979.286	4873.69
979.586	4874.82
979.885	4854.7
980.185	4826.91
980.484	4783.74
980.784	4751.43
981.083	4760.47
981.382	4765.21
981.682	4746.01
981.981	4711.66
982.28	4635.73
982.579	4634.14
982.878	4612.9
983.177	4548.04
983.475	4608.16
983.774	4547.59
984.073	4510.08
984.372	4509.85
984.67	4523.86
984.969	4450.42
985.267	4447.03
985.566	4415.17
985.864	4410.87
986.162	4365.22
986.461	4363.19
986.759	4319.12
987.057	4296.98
987.355	4319.12
987.653	4261.95
987.951	4241.16
988.249	4222.18
988.547	4226.7
988.844	4232.35
989.142	4220.14
989.44	4165.91
989.737	4135.4
990.035	4152.8
990.332	4070.09
990.63	4065.8
990.927	4083.2
991.224	4074.16
991.521	4042.29
991.819	3996.65
992.116	4018.11
992.413	3964.78
992.71	3972.24
993.006	3957.33
993.303	3922.07
993.6	3909.87
993.897	3845.92
994.193	3873.94
994.49	3848.18
994.787	3795.75
995.083	3793.26
995.379	3769.53
995.676	3749.65
995.972	3742.42
996.268	3730.66
996.565	3667.16
996.861	3706.48
997.157	3665.36
997.453	3639.59
997.749	3586.26
998.044	3578.13
998.34	3586.49
998.636	3532.03
998.932	3557.56
999.227	3553.72
999.523	3506.04
999.818	3490.67
1000.114	3453.84
1000.409	3440.05
1000.704	3458.58
1001	3398.92
1001.295	3393.27
1001.59	3360.5
1001.885	3362.54
1002.18	3348.53
1002.475	3313.95
1002.77	3330.45
1003.065	3275.08
1003.359	3239.83
1003.654	3280.51
1003.949	3196.67
1004.243	3213.84
1004.538	3165.93
1004.832	3162.54
1005.127	3154.18
1005.421	3144.47
1005.715	3118.7
1006.009	3120.51
1006.304	3053.39
1006.598	3042.1
1006.892	3055.2
1007.186	3000.97
1007.48	2988.99
1007.773	2970.91
1008.067	2934.53
1008.361	2936.56
1008.655	2932.72
1008.948	2890.69
1009.242	2885.72
1009.535	2872.38
1009.829	2858.6
1010.122	2847.52
1010.415	2855.66
1010.708	2803.68
1011.001	2814.98
1011.295	2738.6
1011.588	2724.36
1011.881	2742.22
1012.173	2711.71
1012.466	2722.33
1012.759	2709.67
1013.052	2694.31
1013.344	2679.39
1013.637	2664.25
1013.93	2621.54
1014.222	2635.55
1014.514	2596.91
1014.807	2551.71
1015.099	2559.17
1015.391	2543.13
1015.683	2507.65
1015.976	2506.29
1016.268	2493.86
1016.56	2494.99
1016.851	2432.39
1017.143	2425.39
1017.435	2457.7
1017.727	2425.61
1018.018	2368.44
1018.31	2382.68
1018.602	2374.32
1018.893	2319.63
1019.185	2298.16
1019.476	2325.5
1019.767	2291.38
1020.058	2296.13
1020.35	2265.17
1020.641	2238.5
1020.932	2230.37
1021.223	2228.78
1021.514	2205.06
1021.804	2172.51
1022.095	2175
1022.386	2182
1022.677	2120.99
1022.967	2116.47
1023.258	2110.37
1023.548	2108.11
1023.839	2076.47
1024.129	2046.42
1024.419	2060.88
1024.709	2040.54
1025	1999.64
1025.29	2034.21
1025.58	2016.59
1025.87	1980.43
1026.16	1943.14
1026.449	1941.79
1026.739	1943.14
1027.029	1940.66
1027.319	1920.09
1027.608	1901.56
1027.898	1896.81
1028.187	1862.47
1028.477	1875.12
1028.766	1850.26
1029.055	1821.79
1029.344	1812.97
1029.634	1834.67
1029.923	1792.64
1030.212	1799.42
1030.501	1759.19
1030.79	1751.06
1031.078	1756.03
1031.367	1719.42
1031.656	1725.97
1031.945	1688.46
1032.233	1677.84
1032.522	1701.34
1032.81	1660.66
1033.099	1649.36
1033.387	1626.31
1033.675	1626.99
1033.963	1612.53
1034.251	1597.61
1034.54	1596.94
1034.828	1571.17
1035.116	1586.77
1035.403	1543.83
1035.691	1563.49
1035.979	1541.34
1036.267	1501.12
1036.554	1526.2
1036.842	1474.68
1037.129	1478.29
1037.417	1478.29
1037.704	1449.82
1037.992	1471.29
1038.279	1464.96
1038.566	1464.28
1038.853	1464.28
1039.14	1464.28
