Data from 291_FLMS001491_002.txt Node
Date: Thu Apr 19 16:45:38 BST 2018
User: hsy
Spectrometer: FLMS00149
Trigger mode: 0
Integration Time (sec): 1.000000E-2
Scans to average: 10
Electric dark correction enabled: true
Nonlinearity correction enabled: false
Boxcar width: 0
XAxis mode: Wavelengths
Number of Pixels in Spectrum: 2048
>>>>>Begin Spectral Data<<<<<
341.393	-36.81
341.776	-36.81
342.16	-36.81
342.543	-36.81
342.927	-72.29
343.31	-74.55
343.693	-64.83
344.077	-61.21
344.46	-48.56
344.843	-44.72
345.226	-37.71
345.61	-47.65
345.993	-19.18
346.376	-20.54
346.759	6.81
347.142	34.6
347.525	38.9
347.908	56.3
348.291	67.37
348.674	99.91
349.057	115.05
349.44	118.22
349.823	125.22
350.206	183.3
350.588	228.5
350.971	240.93
351.354	281.38
351.737	280.92
352.119	279.34
352.502	294.94
352.884	310.75
353.267	303.98
353.65	327.7
354.032	311.43
354.414	340.58
354.797	342.62
355.179	363.63
355.562	358.89
355.944	365.89
356.326	376.29
356.709	349.17
357.091	361.6
357.473	395.05
357.855	361.83
358.238	376.06
358.62	354.82
359.002	393.69
359.384	395.95
359.766	389.17
360.148	372
360.53	397.31
360.912	383.75
361.294	372
361.676	366.8
362.057	368.61
362.439	375.39
362.821	378.78
363.203	363.86
363.584	353.24
363.966	349.62
364.348	365.89
364.729	350.3
365.111	367.7
365.493	376.74
365.874	373.58
366.256	373.8
366.637	350.75
367.019	373.35
367.4	350.08
367.781	375.61
368.163	349.85
368.544	359.34
368.925	356.18
369.306	337.65
369.688	350.3
370.069	361.83
370.45	347.36
370.831	361.37
371.212	359.57
371.593	352.79
371.974	361.15
372.355	377.19
372.736	357.76
373.117	368.15
373.498	366.57
373.879	390.53
374.26	369.51
374.641	369.06
375.021	386.23
375.402	369.06
375.783	383.97
376.163	372.45
376.544	386.46
376.925	383.97
377.305	378.32
377.686	394.59
378.066	392.33
378.447	388.04
378.827	388.04
379.208	388.04
379.588	388.27
379.968	389.62
380.349	388.94
380.729	378.32
381.109	403.63
381.489	398.44
381.87	398.89
382.25	427.81
382.63	420.36
383.01	394.37
383.39	419.68
383.77	408.61
384.15	432.11
384.53	414.25
384.91	435.05
385.29	428.49
385.67	437.08
386.049	427.59
386.429	436.85
386.809	430.07
387.189	440.47
387.568	452.67
387.948	458.1
388.328	457.19
388.707	470.98
389.087	465.55
389.466	456.51
389.846	470.52
390.225	485.67
390.605	479.34
390.984	480.69
391.363	488.6
391.743	499.9
392.122	508.04
392.501	490.18
392.881	513.01
393.26	513.24
393.639	529.73
394.018	520.92
394.397	524.08
394.776	537.19
395.155	551.65
395.534	534.03
395.913	536.96
396.292	560.47
396.671	574.48
397.05	557.98
397.429	574.25
397.808	569.73
398.186	570.86
398.565	577.41
398.944	565.21
399.323	595.04
399.701	589.62
400.08	598.2
400.458	613.57
400.837	604.98
401.215	617.41
401.594	627.58
401.972	634.81
402.351	628.94
402.729	662.16
403.107	640.69
403.486	652.67
403.864	662.16
404.242	672.33
404.62	704.42
404.999	705.32
405.377	702.61
405.755	716.17
406.133	732.44
406.511	735.15
406.889	752.1
407.267	759.33
407.645	781.25
408.023	803.17
408.401	776.05
408.779	802.72
409.156	814.47
409.534	853.11
409.912	855.15
410.29	870.97
410.667	887.46
411.045	886.11
411.422	904.41
411.8	941.25
412.178	985.31
412.555	970.85
412.933	991.87
413.31	997.74
413.687	1026.89
414.065	1038.65
414.442	1047.23
414.819	1075.71
415.197	1068.7
415.574	1123.84
415.951	1123.61
416.328	1134.46
416.705	1159.32
417.082	1165.87
417.46	1171.52
417.837	1194.35
418.214	1213.56
418.591	1221.24
418.967	1242.93
419.344	1221.92
419.721	1283.16
420.098	1284.51
420.475	1286.55
420.852	1313.44
421.228	1341.91
421.605	1336.72
421.982	1364.51
422.358	1385.53
422.735	1411.29
423.111	1391.63
423.488	1466.88
423.864	1456.49
424.241	1492.42
424.617	1485.41
424.994	1537.84
425.37	1546.43
425.746	1516.82
426.123	1583.49
426.499	1618.29
426.875	1607.22
427.251	1644.05
427.627	1685.63
428.003	1699.42
428.379	1713.43
428.756	1732.86
429.132	1762.69
429.507	1806.53
429.883	1778.06
430.259	1826.42
430.635	1890.83
431.011	1871.62
431.387	1919.98
431.763	1978.28
432.138	1958.85
432.514	2047.88
432.89	2043.82
433.265	2118.39
433.641	2102.8
434.016	2115.9
434.392	2149.58
434.767	2190.25
435.143	2226.86
435.518	2294.66
435.894	2275.22
436.269	2319.06
436.644	2372.17
437.02	2369.46
437.395	2420.76
437.77	2457.36
438.145	2493.97
438.52	2548.66
438.895	2576.01
439.271	2550.02
439.646	2633.18
440.021	2693.06
440.395	2683.35
440.77	2633.18
441.145	2720.86
441.52	2784.59
441.895	2787.98
442.27	2794.31
442.645	2794.53
443.019	2801.08
443.394	2887.86
443.769	2865.94
444.143	2860.52
444.518	2929.22
444.892	2923.12
445.267	2947.97
445.641	2979.84
446.016	3011.25
446.39	3067.74
446.764	3080.17
447.139	3088.99
447.513	3114.07
447.887	3138.93
448.262	3169.66
448.636	3161.53
449.01	3218.47
449.384	3228.19
449.758	3316.1
450.132	3357.45
450.506	3365.59
450.88	3354.97
451.254	3358.13
451.628	3479.26
452.002	3482.42
452.376	3524.23
452.75	3553.16
453.123	3577.56
453.497	3637.67
453.871	3657.33
454.244	3740.49
454.618	3796.09
454.992	3816.88
455.365	3909.98
455.739	3935.97
456.112	3956.53
456.486	4012.35
456.859	4074.05
457.232	4135.96
457.606	4206.25
457.979	4201.5
458.352	4333.25
458.725	4331.67
459.099	4430.65
459.472	4476.07
459.845	4542.51
460.218	4583.86
460.591	4654.6
460.964	4680.36
461.337	4767.13
461.71	4866.79
462.083	4940.69
462.456	4938.88
462.829	4951.54
463.201	5049.84
463.574	5109.05
463.947	5149.95
464.32	5217.52
464.692	5310.4
465.065	5361.02
465.438	5438.98
465.81	5463.84
466.183	5568.24
466.555	5674.23
466.928	5692.31
467.3	5730.5
467.672	5796.03
468.045	5957.61
468.417	5919.87
468.789	5979.53
469.161	6078.06
469.534	6208
469.906	6287.09
470.278	6356.47
470.65	6342.46
471.022	6512.63
471.394	6628.78
471.766	6740.87
472.138	6766.4
472.51	6883.01
472.882	6984.03
473.253	7017.24
473.625	7131.14
473.997	7322.1
474.369	7360.96
474.74	7407.07
475.112	7577.91
475.484	7697.45
475.855	7826.94
476.227	7902.65
476.598	8132.24
476.97	8165.69
477.341	8344.44
477.713	8472.35
478.084	8519.35
478.455	8813.36
478.827	8857.87
479.198	9088.6
479.569	9082.95
479.94	9362.27
480.311	9507.8
480.682	9656.95
481.053	9841.58
481.424	10024.62
481.795	10096.03
482.166	10237.95
482.537	10426.19
482.908	10539.19
483.279	10688.11
483.65	11003.81
484.021	11047.87
484.391	11220.3
484.762	11354.31
485.133	11510.46
485.503	11568.76
485.874	11916.78
486.244	11947.96
486.615	12164.91
486.985	12301.63
487.356	12557.21
487.726	12587.95
488.097	12958.33
488.467	13009.18
488.837	13230.87
489.207	13319.23
489.578	13566.45
489.948	13777.07
490.318	13955.37
490.688	14009.38
491.058	14255.25
491.428	14351.29
491.798	14504.05
492.168	14755.12
492.538	14831.95
492.908	14974.78
493.278	15195.79
493.648	15219.97
494.017	15404.14
494.387	15636.23
494.757	15675.55
495.126	15844.36
495.496	15835.54
495.866	16057.91
496.235	16157.34
496.605	16243.67
496.974	16374.96
497.344	16515.98
497.713	16586.71
498.082	16673.71
498.452	16757.33
498.821	16988.96
499.19	16930.66
499.559	17105.12
499.928	17094.49
500.298	17247.03
500.667	17328.61
501.036	17492.68
501.405	17503.75
501.774	17572.22
502.143	17721.6
502.512	17784.65
502.88	17961.59
503.249	17888.82
503.618	18101.25
503.987	18140.12
504.356	18229.38
504.724	18313.22
505.093	18393.89
505.462	18509.6
505.83	18545.53
506.199	18653.1
506.567	18834.34
506.936	18880.44
507.304	19064.61
507.672	19105.29
508.041	19225.51
508.409	19392.96
508.777	19507.99
509.145	19531.27
509.514	19497.82
509.882	19657.36
510.25	19698.27
510.618	19887.19
510.986	19831.6
511.354	19962.89
511.722	20139.84
512.09	20366.05
512.458	20272.26
512.826	20449.66
513.193	20483.78
513.561	20618.24
513.929	20734.85
514.297	20871.57
514.664	20956.99
515.032	21047.61
515.4	21189.75
515.767	21198.34
516.135	21372.35
516.502	21207.83
516.869	21577.77
517.237	21734.82
517.604	21551.55
517.972	21881.26
518.339	22074.7
518.706	21990.18
519.073	22058.88
519.44	22258.2
519.808	22378.65
520.175	22535.25
520.542	22617.96
520.909	22725.98
521.276	22822.25
521.643	22994
522.009	23124.39
522.376	23262.69
522.743	23331.17
523.11	23579.07
523.477	23668.11
523.843	23772.51
524.21	23992.39
524.577	24063.12
524.943	24254.53
525.31	24248.88
525.676	24645.03
526.043	24667.18
526.409	24689.1
526.776	24887.74
527.142	24973.38
527.508	25099.48
527.874	25194.62
528.241	25324.56
528.607	25456.99
528.973	25671.9
529.339	25674.38
529.705	25817.65
530.071	25899.69
530.437	26058.33
530.803	26138.1
531.169	26284.53
531.535	26372.67
531.901	26267.59
532.267	26369.73
532.632	26624.41
532.998	26628.25
533.364	26716.84
533.73	26524.75
534.095	26843.16
534.461	26877.51
534.826	27002.71
535.192	26861.02
535.557	27103.95
535.923	27128.81
536.288	27123.83
536.653	27190.73
537.019	27111.18
537.384	27211.52
537.749	27155.02
538.114	27192.08
538.479	27091.07
538.845	27174.45
539.21	27137.17
539.575	27204.96
539.94	27049.94
540.305	27329.25
540.67	27227.33
541.034	27309.59
541.399	27268.92
541.764	27339.65
542.129	27311.63
542.494	27289.48
542.858	27333.32
543.223	27213.55
543.587	27406.31
543.952	27183.49
544.316	27332.42
544.681	27162.7
545.045	27313.66
545.41	27260.33
545.774	27082.25
546.138	27159.09
546.503	27214.91
546.867	27321.34
547.231	27404.28
547.595	27314.56
547.959	27411.96
548.324	27235.47
548.688	27270.5
549.052	27185.08
549.416	27277.73
549.779	27129.03
550.143	27243.38
550.507	27273.66
550.871	27168.13
551.235	27172.2
551.599	27369.93
551.962	27284.51
552.326	27272.98
552.689	27217.39
553.053	27086.77
553.417	27204.06
553.78	27345.75
554.143	27237.28
554.507	27307.56
554.87	27279.31
555.234	27406.09
555.597	27047.23
555.96	27141.69
556.323	27344.62
556.686	27218.07
557.05	27329.48
557.413	27327.45
557.776	27200.67
558.139	27538.29
558.502	27395.01
558.865	27259.2
559.228	27543.03
559.59	27393.66
559.953	27470.27
560.316	27578.96
560.679	27557.04
561.041	27662.8
561.404	27681.33
561.767	27675.23
562.129	27547.78
562.492	27733.54
562.854	27703.71
563.217	27786.19
563.579	27828.9
563.941	27840.43
564.304	27912.51
564.666	28094.2
565.028	28039.29
565.39	28002.91
565.753	28229.57
566.115	28202.22
566.477	28311.37
566.839	28324.03
567.201	28440.64
567.563	28267.76
567.925	28569.67
568.287	28564.02
568.648	28554.98
569.01	28652.83
569.372	28748.88
569.734	28770.12
570.095	28863.22
570.457	28992.94
570.819	28896.44
571.18	28911.58
571.542	29054.18
571.903	28906.61
572.265	29160.17
572.626	29227.73
572.987	29272.48
573.349	29221.86
573.71	29334.62
574.071	29393.83
574.432	29577.33
574.794	29677.44
575.155	29683.09
575.516	29540.27
575.877	29665.01
576.238	29710.43
576.599	29817.78
576.96	29823.42
577.32	29796.31
577.681	29898
578.042	30113.36
578.403	30000.14
578.763	30095.73
579.124	30058.9
579.485	30183.42
579.845	30226.35
580.206	30174.15
580.566	30220.7
580.927	30181.16
581.287	30304.99
581.648	30195.17
582.008	30365.56
582.368	30321.26
582.728	30387.7
583.089	30343.19
583.449	30457.53
583.809	30407.59
584.169	30469.51
584.529	30307.03
584.889	30634.48
585.249	30453.46
585.609	30273.81
585.969	30547.7
586.329	30474.71
586.688	30581.15
587.048	30514.25
587.408	30501.6
587.768	30446.23
588.127	30414.6
588.487	30368.27
588.846	30762.61
589.206	30496.63
589.565	30544.54
589.925	30784.76
590.284	30630.64
590.643	30643.74
591.003	30637.19
591.362	30884.41
591.721	30626.12
592.08	30621.82
592.44	31009.38
592.799	30697.53
593.158	30751.08
593.517	30727.58
593.876	30777.52
594.235	30780.69
594.593	30801.03
594.952	30776.62
595.311	30825.21
595.67	30851.87
596.029	30957.18
596.387	31075.37
596.746	31171.19
597.104	30974.81
597.463	30939.78
597.822	31158.08
598.18	31059.32
598.538	31024.98
598.897	31278.08
599.255	30938.2
599.613	31366.89
599.972	31130.06
600.33	31296.15
600.688	31129.15
601.046	31333.89
601.404	31377.96
601.762	31351.07
602.12	31571.4
602.478	31443.04
602.836	31538.63
603.194	31288.47
603.552	31502.7
603.91	31344.97
604.268	31612.53
604.625	31422.7
604.983	31587.9
605.341	31404.4
605.698	31672.87
606.056	31689.59
606.413	31706.99
606.771	31837.16
607.128	31731.17
607.485	31657.27
607.843	31872.86
608.2	31917.83
608.557	32147.43
608.914	31999.64
609.272	32087.32
609.629	32116.25
609.986	32228.56
610.343	32240.08
610.7	32349.91
611.057	32348.56
611.414	32287.09
611.771	32372.28
612.127	32562.79
612.484	32539.29
612.841	32581.54
613.198	32474.43
613.554	32449.57
613.911	32818.15
614.267	32707.19
614.624	32734.76
614.98	32774.76
615.337	33063.57
615.693	33028.76
616.05	33097.01
616.406	33165.48
616.762	33156.44
617.118	33068.09
617.475	33051.81
617.831	33222.43
618.187	33257.46
618.543	33340.17
618.899	33478.7
619.255	33423.78
619.611	33359.38
619.967	33548.98
620.323	33504.68
620.678	33555.3
621.034	33622.87
621.39	33587.17
621.746	33524.8
622.101	33919.14
622.457	33600.5
622.812	33827.84
623.168	33803.21
623.523	33834.39
623.879	33925.92
624.234	33727.28
624.589	33749.88
624.945	34031.22
625.3	33921.17
625.655	33859.02
626.01	34080.04
626.365	33981.06
626.72	33806.6
627.075	33813.38
627.43	33824.45
627.785	33887.27
628.14	33859.02
628.495	33966.37
628.85	33952.36
629.205	33772.02
629.559	34012.92
629.914	33763.43
630.269	33759.37
630.623	33696.09
630.978	33624.68
631.332	33763.43
631.687	33777.22
632.041	33680.95
632.396	33702.64
632.75	33614.51
633.104	33751.46
633.459	33473.27
633.813	33534.97
634.167	33461.52
634.521	33570.22
634.875	33566.6
635.229	33368.42
635.583	33388.3
635.937	33416.55
636.291	33356.89
636.645	33339.72
636.999	33221.08
637.352	33330.68
637.706	33119.16
638.06	33326.61
638.413	33165.71
638.767	33033.74
639.121	33116.9
639.474	33006.84
639.828	33005.49
640.181	33129.33
640.534	33094.75
640.888	32774.76
641.241	32748.77
641.594	32833.97
641.947	32970.23
642.301	32780.86
642.654	32847.53
643.007	32790.58
643.36	32881.65
643.713	32781.09
644.066	32850.92
644.419	32773.63
644.771	32454.99
645.124	32080.54
645.477	32065.17
645.83	32013.88
646.182	31896.14
646.535	31906.99
646.888	32036.7
647.24	31959.19
647.593	32039.19
647.945	31887.78
648.298	31901.34
648.65	31763.03
649.002	31658.86
649.355	31752.41
649.707	31628.35
650.059	31605.98
650.411	32123.93
650.763	32168.45
651.115	32887.3
651.467	32548.78
651.819	32575.67
652.171	32525.73
652.523	32397.14
652.875	32597.36
653.227	32322.57
653.578	32637.81
653.93	32580.87
654.282	32446.18
654.633	32289.57
654.985	32524.14
655.337	32539.06
655.688	32526.4
656.039	32611.15
656.391	32230.14
656.742	32451.38
657.094	32463.13
657.445	32571.83
657.796	32566.86
658.147	32544.71
658.498	32603.01
658.849	32711.03
659.2	32537.03
659.551	32589
659.902	32807.75
660.253	32818.83
660.604	32910.8
660.955	32681.43
661.306	32963.91
661.656	32694.99
662.007	32684.14
662.358	32774.53
662.708	32856.34
663.059	32845.49
663.409	32681.65
663.76	32928.65
664.11	32962.55
664.461	33047.29
664.811	33007.75
665.161	33072.6
665.511	32919.61
665.862	33022.21
666.212	33158.03
666.562	33090.23
666.912	33020.18
667.262	33028.76
667.612	33043.23
667.962	33106.73
668.312	32952.83
668.662	33233.28
669.011	33125.94
669.361	32973.85
669.711	33223.56
670.06	33050.46
670.41	32999.84
670.76	32990.8
671.109	33105.37
671.459	32875.1
671.808	33012.49
672.157	33061.76
672.507	32837.13
672.856	32797.58
673.205	32803.01
673.554	32974.98
673.904	32787.41
674.253	33138.37
674.602	32925.04
674.951	32465.16
675.3	32321.89
675.649	32863.57
675.998	32803.69
676.346	32720.3
676.695	32972.49
677.044	32659.73
677.393	32792.16
677.741	32944.25
678.09	32673.29
678.438	32643.69
678.787	32747.87
679.135	32728.21
679.484	32374.32
679.832	32428.33
680.181	32354.88
680.529	32445.5
680.877	32275.11
681.225	32195.34
681.573	32452.28
681.922	32254.1
682.27	32170.26
682.618	32195.79
682.966	32063.14
683.314	32082.8
683.661	31920.09
684.009	31801.9
684.357	31798.97
684.705	31614.79
685.053	31705.41
685.4	31509.93
685.748	31419.32
686.095	31319.2
686.443	31212.54
686.79	31270.39
687.138	31271.52
687.485	31213.67
687.832	30990.4
688.18	31024.07
688.527	30857.97
688.874	30873.34
689.221	30788.82
689.568	30652.1
689.915	30482.62
690.262	30519.68
690.609	30460.47
690.956	30279.68
691.303	30190.87
691.65	29974.38
691.997	29845.12
692.344	29781.17
692.69	29681.73
693.037	29750.88
693.383	29536.65
693.73	29552.47
694.077	29324
694.423	29337.79
694.769	29158.81
695.116	29147.06
695.462	28898.03
695.808	28760.63
696.155	28896.9
696.501	28530.35
696.847	28666.62
697.193	28391.37
697.539	28274.77
697.885	28122.9
698.231	27978.5
698.577	28013.75
698.923	27995.9
699.269	27773.08
699.614	27541.22
699.96	27470.27
700.306	27502.81
700.651	27312.53
700.997	27170.39
701.342	27214.68
701.688	27044.97
702.033	26977.85
702.379	26967.45
702.724	26694.24
703.069	26676.39
703.415	26492.89
703.76	26357.98
704.105	26454.7
704.45	26277.3
704.795	26185.78
705.14	25975.62
705.485	26023.3
705.83	25854.49
706.175	25901.95
706.52	25731.78
706.865	25606.36
707.209	25509.64
707.554	25624.67
707.899	25595.29
708.243	25380.6
708.588	25392.13
708.932	25118.24
709.277	25212.02
709.621	25118.92
709.966	24931.35
710.31	25009.99
710.654	24777.23
710.998	24800.28
711.342	24859.49
711.687	24669.44
712.031	24558.03
712.375	24551.25
712.719	24428.31
713.063	24456.33
713.407	24569.78
713.75	24296.34
714.094	24375.43
714.438	24271.03
714.782	24252.95
715.125	24145.83
715.469	24351.7
715.812	24120.3
716.156	24153.74
716.499	24072.84
716.843	24218.6
717.186	23870.81
717.53	24068.32
717.873	24024.71
718.216	24041.43
718.559	23908.1
718.902	23671.27
719.246	23791.72
719.589	23789.23
719.932	23761.66
720.275	23829.23
720.617	23863.81
720.96	23739.97
721.303	23717.37
721.646	23798.72
721.989	23776.58
722.331	23707.88
722.674	23676.24
723.016	23698.61
723.359	23531.39
723.701	23683.25
724.044	23565.51
724.386	23520.54
724.729	23623.81
725.071	23682.12
725.413	23565.96
725.755	23693.19
726.097	23480.31
726.439	23499.52
726.782	23490.71
727.124	23703.81
727.465	23721.44
727.807	23594.44
728.149	23669.01
728.491	23624.27
728.833	23730.7
729.175	23779.29
729.516	23688.44
729.858	23665.39
730.199	23764.38
730.541	23841.44
730.882	23717.6
731.224	23873.98
731.565	23796.69
731.906	23909.91
732.248	23843.24
732.589	23817.26
732.93	23887.99
733.271	23821.1
733.612	23928.21
733.953	24010.24
734.294	23889.57
734.635	23997.36
734.976	24160.75
735.317	24028.1
735.658	24109.68
735.999	24156.23
736.339	24195.78
736.68	24266.96
737.021	24280.07
737.361	24251.37
737.702	24489.78
738.042	24545.15
738.383	24604.35
738.723	24634.18
739.063	24541.76
739.404	24739.94
739.744	24709.44
740.084	24698.81
740.424	24866.04
740.764	24797.57
741.104	25069.43
741.444	25042.76
741.784	25087.05
742.124	25217.44
742.464	25218.8
742.804	25392.13
743.143	25448.62
743.483	25586.7
743.823	25558.68
744.162	25709.63
744.502	25804.55
744.841	25844.32
745.181	26265.55
745.52	26146.01
745.86	26377.64
746.199	26339.45
746.538	26588.48
746.877	26716.16
747.216	26897.17
747.556	26875.03
747.895	26989.6
748.234	27164.06
748.573	27350.72
748.911	27404.05
749.25	27675.46
749.589	27556.59
749.928	27988.67
750.267	28119.97
750.605	28181.21
750.944	28468.88
751.283	28512.5
751.621	28800.4
751.96	28892.83
752.298	29152.26
752.636	29210.11
752.975	29382.53
753.313	29606.03
753.651	29923.99
753.989	29865.46
754.327	30118.11
754.666	30213.92
755.004	30584.99
755.342	30684.42
755.679	30848.26
756.017	30868.6
756.355	31232.2
756.693	31291.63
757.031	31654.56
757.368	31628.8
757.706	31888.23
758.044	32003.25
758.381	32163.48
758.719	32318.5
759.056	32564.6
759.394	32631.49
759.731	32670.13
760.068	32901.99
760.405	33051.59
760.743	32923
761.08	33381.52
761.417	33434.4
761.754	33485.7
762.091	33671.23
762.428	33713.49
762.765	33726.15
763.102	34008.4
763.438	33925.69
763.775	33952.13
764.112	34170.43
764.449	34268.05
764.785	34349.63
765.122	34342.63
765.458	34259.69
765.795	34444.77
766.131	34714.14
766.467	34574.49
766.804	34571.55
767.14	34705.1
767.476	34571.1
767.812	34869.39
768.148	34927.7
768.485	34850.19
768.821	34657.65
769.157	34693.35
769.492	34747.59
769.828	34854.48
770.164	34630.53
770.5	34649.96
770.836	34807.02
771.171	34851.09
771.507	34825.55
771.842	34713.01
772.178	34872.11
772.513	34752.11
772.849	34646.57
773.184	34689.06
773.519	34646.8
773.855	34671.88
774.19	34567.93
774.525	34513.47
774.86	34364.1
775.195	34395.06
775.53	34327.04
775.865	34251.11
776.2	34201.39
776.535	34019.7
776.87	34030.32
777.205	33861.51
777.539	33901.96
777.874	33901.06
778.209	33590.11
778.543	33774.51
778.878	33538.81
779.212	33559.37
779.547	33344.46
779.881	33488.64
780.215	33219.49
780.55	33258.36
780.884	33044.58
781.218	33027.86
781.552	33171.13
781.886	32912.61
782.22	32757.59
782.554	32635.33
782.888	32480.76
783.222	32534.31
783.556	32144.04
783.889	32198.5
784.223	31999.41
784.557	32135.23
784.89	32206.41
785.224	32015.46
785.557	31794.67
785.891	31738.85
786.224	31798.74
786.558	31672.87
786.891	31475.13
787.224	31411.63
787.557	31211.86
787.891	31265.87
788.224	31079.66
788.557	31074.47
788.89	31111.53
789.223	31050.51
789.556	30751.31
789.888	30831.08
790.221	30695.04
790.554	30590.86
790.887	30576.4
791.219	30373.24
791.552	30354.71
791.884	30233.13
792.217	30189.29
792.549	30065.9
792.882	29864.78
793.214	29839.47
793.546	29928.51
793.879	29776.19
794.211	29449.42
794.543	29579.14
794.875	29472.7
795.207	29541.85
795.539	29316.09
795.871	29385.02
796.203	29232.48
796.535	29081.07
796.867	29010.34
797.198	28831.59
797.53	28761.53
797.862	28727.86
798.193	28558.15
798.525	28582.78
798.856	28699.61
799.188	28225.05
799.519	28225.73
799.85	28145.28
800.182	28230.25
800.513	28245.16
800.844	27773.76
801.175	28183.24
801.506	28024.6
801.837	27839.3
802.168	27775.34
802.499	27765.85
802.83	27638.17
803.161	27474.56
803.491	27486.09
803.822	27532.86
804.153	27311.85
804.483	27230.05
804.814	27042.93
805.145	27120.67
805.475	27062.82
805.805	27049.94
806.136	26915.7
806.466	26859.44
806.796	26800.68
807.126	26669.84
807.457	26588.93
807.787	26738.76
808.117	26658.76
808.447	26482.04
808.777	26537.18
809.107	26266
809.436	26319.11
809.766	26232.33
810.096	26224.88
810.426	26165.44
810.755	26256.06
811.085	25969.51
811.414	25972.23
811.744	25830.08
812.073	25939.23
812.403	25850.65
812.732	25729.52
813.061	25848.16
813.39	25558.45
813.719	25568.62
814.049	25744.21
814.378	25566.36
814.707	25423.77
815.036	25424.44
815.365	25366.82
815.693	25171.57
816.022	25135.19
816.351	25216.09
816.68	24961.41
817.008	25152.59
817.337	24859.49
817.665	25027.62
817.994	24908.98
818.322	24870.79
818.651	24841.63
818.979	24753.05
819.307	24770.9
819.636	24709.44
819.964	24704.24
820.292	24678.02
820.62	24632.83
820.948	24591.92
821.276	24705.82
821.604	24590.34
821.932	24664.01
822.259	24688.87
822.587	24592.15
822.915	24435.54
823.243	24635.76
823.57	24483.23
823.898	24661.98
824.225	24537.91
824.553	24563.45
824.88	24596.22
825.207	24579.72
825.535	24515.09
825.862	24632.37
826.189	24526.39
826.516	24718.93
826.843	24755.31
827.17	24738.36
827.497	24755.76
827.824	24683.9
828.151	24900.39
828.478	24666.72
828.805	24859.49
829.131	24691.13
829.458	24753.5
829.785	24611.36
830.111	24584.92
830.438	24877.79
830.764	24707.18
831.09	24768.64
831.417	24616.56
831.743	24806.38
832.069	24631.47
832.395	24623.79
832.722	24647.52
833.048	24648.87
833.374	24655.65
833.7	24640.28
834.026	24574.3
834.351	24707.18
834.677	24490.01
835.003	24713.95
835.329	24591.25
835.654	24480.74
835.98	24535.65
836.306	24601.87
836.631	24441.42
836.956	24618.14
837.282	24575.65
837.607	24423.34
837.932	24313.51
838.258	24367.98
838.583	24200.07
838.908	24228.32
839.233	24303.34
839.558	24250.24
839.883	24225.15
840.208	23980.19
840.533	24106.29
840.858	24075.33
841.182	24033.29
841.507	23961.88
841.832	23887.99
842.156	23889.12
842.481	23921.89
842.805	23828.78
843.13	23726.18
843.454	23825.16
843.778	23652.29
844.103	23636.69
844.427	23532.52
844.751	23601.22
845.075	23437.6
845.399	23445.97
845.723	23322.8
846.047	23348.79
846.371	23264.95
846.695	23190.38
847.019	22982.02
847.343	22897.05
847.666	22798.3
847.99	22797.39
848.313	22516.27
848.637	22612.09
848.96	22610.28
849.284	22498.42
849.607	22358.54
849.931	22305.43
850.254	22192.21
850.577	21870.64
850.9	21862.73
851.223	21892.79
851.546	21868.61
851.869	21682.62
852.192	21852.79
852.515	21558.11
852.838	21355.4
853.161	21358.34
853.483	21278.34
853.806	21313.37
854.129	21214.61
854.451	21293.93
854.774	21032.47
855.096	21045.58
855.419	20919.48
855.741	20878.12
856.063	20876.32
856.385	20655.08
856.708	20669.32
857.03	20634.29
857.352	20594.06
857.674	20521.75
857.996	20379.83
858.318	20395.65
858.64	20311.13
858.961	20261.42
859.283	20249.67
859.605	20071.36
859.926	20102.1
860.248	20065.94
860.57	19986.85
860.891	19943.01
861.212	19842.22
861.534	19793.63
861.855	19792.73
862.176	19808.32
862.498	19769.68
862.819	19780.53
863.14	19765.16
863.461	19644.71
863.782	19592.28
864.103	19625.05
864.424	19538.5
864.745	19563.58
865.065	19436.35
865.386	19354.1
865.707	19385.73
866.027	19433.19
866.348	19412.85
866.668	19358.84
866.989	19258.96
867.309	19132.86
867.63	19139.41
867.95	19210.82
868.27	19031.39
868.59	19135.12
868.91	19087.21
869.23	19022.8
869.55	18901.23
869.87	19067.55
870.19	19030.71
870.51	18914.11
870.83	18854.9
871.15	18802.7
871.469	18817.61
871.789	18977.38
872.109	18775.35
872.428	18772.87
872.748	18726.09
873.067	18734.9
873.386	18652.19
873.706	18661.91
874.025	18663.72
874.344	18512.31
874.663	18520.9
874.982	18443.16
875.301	18392.54
875.62	18429.15
875.939	18296.72
876.258	18333.11
876.577	18261.47
876.896	18316.16
877.214	18242.49
877.533	18260.11
877.852	18174.69
878.17	18169.72
878.489	18187.8
878.807	18162.71
879.125	18019.22
879.444	18050.18
879.762	18004.07
880.08	18061.7
880.398	17917.75
880.716	17962.95
881.034	17820.8
881.352	17874.13
881.67	17873.46
881.988	17807.92
882.306	17764.08
882.624	17739.22
882.941	17685.89
883.259	17638.66
883.577	17654.71
883.894	17562.96
884.212	17406.8
884.529	17378.1
884.846	17397.08
885.164	17405.22
885.481	17296.3
885.798	17301.04
886.115	17200.48
886.432	17285.22
886.75	17309.86
887.067	17192.34
887.383	17207.26
887.7	17134.49
888.017	16994.84
888.334	16976.08
888.651	16903.09
888.967	16882.07
889.284	16795.29
889.6	16779.25
889.917	16701.51
890.233	16794.39
890.55	16664.45
890.866	16623.77
891.182	16541.51
891.498	16588.52
891.815	16480.5
892.131	16372.25
892.447	16412.25
892.763	16377.22
893.079	16301.97
893.395	16238.47
893.71	16242.09
894.026	16081.41
894.342	16074.41
894.657	16020.85
894.973	15953.96
895.289	16032.83
895.604	15887.07
895.92	15878.25
896.235	15722.55
896.55	15769.11
896.865	15666.28
897.181	15501.54
897.496	15521.43
897.811	15461.32
898.126	15478.72
898.441	15439.62
898.756	15356.46
899.071	15295.67
899.386	15384.48
899.7	15134.32
900.015	15062.91
900.33	15066.98
900.644	14954.21
900.959	14960.09
901.273	14864.72
901.588	14837.83
901.902	14739.53
902.216	14753.54
902.531	14692.98
902.845	14562.58
903.159	14508.35
903.473	14497.27
903.787	14454.34
904.101	14399.65
904.415	14407.79
904.729	14275.59
905.042	14154.46
905.356	14185.87
905.67	14151.07
905.984	14129.37
906.297	14174.57
906.611	13945.2
906.924	14015.03
907.237	13830.4
907.551	13794.69
907.864	13736.84
908.177	13744.07
908.491	13717.86
908.804	13534.14
909.117	13511.09
909.43	13435.38
909.743	13457.98
910.056	13367.59
910.368	13298.66
910.681	13321.49
910.994	13168.72
911.307	13126.46
911.619	13090.98
911.932	13069.74
912.244	12887.82
912.557	12954.04
912.869	12899.35
913.181	12852.57
913.494	12761.05
913.806	12739.13
914.118	12680.15
914.43	12656.87
914.742	12609.64
915.054	12481.51
915.366	12486.03
915.678	12426.59
915.99	12405.35
916.302	12324.22
916.613	12244
916.925	12248.52
917.236	12209.2
917.548	12091.46
917.859	12090.56
918.171	12014.18
918.482	11970.33
918.794	11894.4
919.105	11886.27
919.416	11775.54
919.727	11748.42
920.038	11666.16
920.349	11618.25
920.66	11637.01
920.971	11641.08
921.282	11550.68
921.593	11498.71
921.903	11359.05
922.214	11389.56
922.525	11333.52
922.835	11232.5
923.146	11200.19
923.456	11151.83
923.767	11124.71
924.077	11076.57
924.387	11002.9
924.697	10963.13
925.008	10959.06
925.318	10905.5
925.628	10837.26
925.938	10858.05
926.248	10737.83
926.558	10675
926.867	10604.04
927.177	10604.5
927.487	10571.73
927.796	10443.82
928.106	10385.07
928.416	10464.39
928.725	10454.89
929.034	10370.6
929.344	10354.33
929.653	10374.9
929.962	10214.9
930.271	10242.92
930.581	10181.68
930.89	10102.59
931.199	10004.51
931.508	10017.62
931.817	9936.04
932.125	9993.21
932.434	9892.42
932.743	9817.85
933.051	9809.04
933.36	9805.42
933.669	9711.41
933.977	9681.13
934.286	9621.7
934.594	9640.23
934.902	9559.78
935.21	9495.15
935.519	9493.79
935.827	9364.3
936.135	9407.01
936.443	9308.26
936.751	9307.58
937.059	9266
937.367	9221.25
937.674	9120.01
937.982	9113.23
938.29	9139.67
938.597	9146.68
938.905	9020.81
939.213	8936.74
939.52	8924.77
939.827	8974.48
940.135	8862.39
940.442	8851.09
940.749	8790.31
941.056	8809.51
941.363	8805.9
941.67	8704.66
941.977	8617.2
942.284	8596.41
942.591	8566.81
942.898	8504.66
943.205	8511.67
943.511	8439.35
943.818	8435.06
944.125	8391.9
944.431	8322.52
944.738	8272.81
945.044	8280.26
945.35	8226.7
945.657	8235.07
945.963	8170.21
946.269	8135.41
946.575	8118.46
946.881	8028.07
947.187	7988.07
947.493	7986.03
947.799	7974.51
948.105	7839.82
948.41	7807.05
948.716	7851.35
949.022	7835.98
949.327	7819.94
949.633	7687.51
949.938	7702.65
950.244	7732.71
950.549	7597.57
950.854	7569.09
951.16	7500.62
951.465	7517.12
951.77	7508.08
952.075	7431.25
952.38	7444.13
952.685	7417.91
952.99	7297.01
953.294	7332.72
953.599	7290.46
953.904	7259.95
954.209	7201.65
954.513	7234.87
954.818	7127.98
955.122	7162.33
955.426	7043.23
955.731	7082.1
956.035	7021.99
956.339	6947.87
956.643	7010.92
956.948	6910.58
957.252	6883.01
957.556	6863.35
957.86	6838.49
958.163	6857.7
958.467	6742.45
958.771	6802.79
959.075	6739.96
959.378	6636.92
959.682	6667.88
959.985	6604.37
960.289	6614.54
960.592	6559.86
960.896	6544.04
961.199	6515.11
961.502	6512.85
961.805	6484.38
962.108	6381.33
962.411	6386.53
962.714	6314.21
963.017	6301.33
963.32	6363.02
963.623	6258.17
963.926	6292.52
964.228	6262.24
964.531	6229.24
964.833	6153.99
965.136	6126.65
965.438	6130.49
965.741	6069.25
966.043	6041.68
966.345	6069.25
966.648	6014.33
966.95	5985.63
967.252	5979.53
967.554	5987.89
967.856	5923.94
968.158	5866.99
968.46	5848.46
968.761	5788.8
969.063	5791.74
969.365	5788.58
969.666	5707.45
969.968	5692.53
970.269	5748.13
970.571	5621.35
970.872	5624.74
971.174	5583.16
971.475	5641.24
971.776	5542.93
972.077	5567.11
972.378	5591.07
972.679	5503.61
972.98	5468.59
973.281	5486.66
973.582	5462.48
973.883	5360.57
974.183	5374.12
974.484	5331.64
974.785	5311.53
975.085	5307.69
975.386	5293.45
975.686	5280.57
975.986	5180.23
976.287	5220.68
976.587	5187.46
976.887	5130.51
977.187	5153.11
977.487	5126.22
977.787	5085.09
978.087	5086
978.387	5031.76
978.687	5037.41
978.987	5025.43
979.286	4965.32
979.586	4949.95
979.885	4917.41
980.185	4897.98
980.484	4874.48
980.784	4864.99
981.083	4848.94
981.382	4771.2
981.682	4814.36
981.981	4768.04
982.28	4807.36
982.579	4678.32
982.878	4728.49
983.177	4689.62
983.475	4651.21
983.774	4653.24
984.073	4586.35
984.372	4595.39
984.67	4547.48
984.969	4536.41
985.267	4476.52
985.566	4459.12
985.864	4451.89
986.162	4486.46
986.461	4440.59
986.759	4420.7
987.057	4358.78
987.355	4408.95
987.653	4368.5
987.951	4344.09
988.249	4297.77
988.547	4334.38
988.844	4280.59
989.142	4288.73
989.44	4237.88
989.737	4252.8
990.035	4196.53
990.332	4161.5
990.63	4160.6
990.927	4103.65
991.224	4127.83
991.521	4080.15
991.819	4075.85
992.116	4072.01
992.413	4032.92
992.71	3993.6
993.006	4006.25
993.303	3947.5
993.6	3945.91
993.897	3951.11
994.193	3924.22
994.49	3882.19
994.787	3919.02
995.083	3859.59
995.379	3833.37
995.676	3844.9
995.972	3795.86
996.268	3818.91
996.565	3758.12
996.861	3737.33
997.157	3698.01
997.453	3691.46
997.749	3644.45
998.044	3635.19
998.34	3620.05
998.636	3615.53
998.932	3606.49
999.227	3580.95
999.523	3579.82
999.818	3562.42
1000.114	3501.18
1000.409	3514.51
1000.704	3471.8
1001	3440.84
1001.295	3435.87
1001.59	3399.26
1001.885	3420.5
1002.18	3396.55
1002.475	3386.15
1002.77	3375.76
1003.065	3312.48
1003.359	3316.33
1003.654	3272.48
1003.949	3297.34
1004.243	3261.19
1004.538	3185.93
1004.832	3235.65
1005.127	3200.4
1005.421	3133.28
1005.715	3157.69
1006.009	3128.53
1006.304	3154.52
1006.598	3134.18
1006.892	3105.71
1007.186	3042.89
1007.48	3042.89
1007.773	2985.71
1008.067	2991.36
1008.361	2981.19
1008.655	3000.63
1008.948	2951.36
1009.242	2921.08
1009.535	2923.34
1009.829	2900.52
1010.122	2903.23
1010.415	2855.32
1010.708	2851.03
1011.001	2834.98
1011.295	2802.44
1011.588	2781.2
1011.881	2776.68
1012.173	2708.43
1012.466	2736.23
1012.759	2712.73
1013.052	2703.23
1013.344	2719.73
1013.637	2656.23
1013.93	2679.28
1014.222	2659.62
1014.514	2630.92
1014.807	2595.89
1015.099	2547.31
1015.391	2588.66
1015.683	2557.7
1015.976	2554.54
1016.268	2547.53
1016.56	2503.69
1016.851	2506.4
1017.143	2479.29
1017.435	2403.58
1017.727	2452.39
1018.018	2444.03
1018.31	2449.23
1018.602	2396.8
1018.893	2403.81
1019.185	2323.36
1019.476	2313.41
1019.767	2350.02
1020.058	2315
1020.35	2272.96
1020.641	2282.45
1020.932	2260.31
1021.223	2243.81
1021.514	2203.59
1021.804	2164.27
1022.095	2181.44
1022.386	2184.83
1022.677	2173.98
1022.967	2136.7
1023.258	2119.97
1023.548	2148.67
1023.839	2085.62
1024.129	2088.79
1024.419	2072.29
1024.709	2077.26
1025	2067.32
1025.29	2027.09
1025.58	2018.73
1025.87	2014.21
1026.16	1967.89
1026.449	1983.48
1026.739	1959.07
1027.029	1955.91
1027.319	1941.67
1027.608	1948.23
1027.898	1893.54
1028.187	1889.02
1028.477	1913.65
1028.766	1868.68
1029.055	1832.52
1029.344	1808.79
1029.634	1824.84
1029.923	1821.45
1030.212	1797.04
1030.501	1783.03
1030.79	1780.77
1031.078	1770.6
1031.367	1744.84
1031.656	1725.63
1031.945	1713.66
1032.233	1713.66
1032.522	1672.75
1032.81	1679.08
1033.099	1682.7
1033.387	1642.7
1033.675	1663.04
1033.963	1656.03
1034.251	1608.57
1034.54	1622.81
1034.828	1573.55
1035.116	1552.08
1035.403	1572.87
1035.691	1539.42
1035.979	1556.15
1036.267	1546.88
1036.554	1526.32
1036.842	1509.37
1037.129	1502.36
1037.417	1533.32
1037.704	1481.8
1037.992	1489.71
1038.279	1460.33
1038.566	1415.58
1038.853	1415.58
1039.14	1415.58
