Data from 291_FLMS001491_006.txt Node
Date: Thu Apr 19 16:45:47 BST 2018
User: hsy
Spectrometer: FLMS00149
Trigger mode: 0
Integration Time (sec): 1.000000E-2
Scans to average: 10
Electric dark correction enabled: true
Nonlinearity correction enabled: false
Boxcar width: 0
XAxis mode: Wavelengths
Number of Pixels in Spectrum: 2048
>>>>>Begin Spectral Data<<<<<
341.393	-20.68
341.776	-20.68
342.16	-20.68
342.543	-48.7
342.927	-65.42
343.31	-60.68
343.693	-74.01
344.077	-53.22
344.46	-71.07
344.843	-59.09
345.226	-40.11
345.61	-38.08
345.993	-31.07
346.376	15.71
346.759	16.16
347.142	39.43
347.525	44.41
347.908	47.34
348.291	62.48
348.674	91.18
349.057	110.62
349.44	130.96
349.823	162.14
350.206	152.2
350.588	212.99
350.971	219.77
351.354	247.79
351.737	271.97
352.119	266.77
352.502	308.35
352.884	329.6
353.267	311.52
353.65	319.65
354.032	338.64
354.414	325.08
354.797	339.77
355.179	355.36
355.562	337.73
355.944	355.58
356.326	356.26
356.709	364.4
357.091	365.53
357.473	374.79
357.855	387.22
358.238	380.22
358.62	382.02
359.002	370.05
359.384	377.28
359.766	387.22
360.148	386.77
360.53	373.89
360.912	363.95
361.294	378.18
361.676	381.57
362.057	359.43
362.439	358.07
362.821	377.5
363.203	379.99
363.584	379.76
363.966	366.21
364.348	375.7
364.729	356.71
365.111	344.96
365.493	358.97
365.874	356.71
366.256	368.24
366.637	364.62
367.019	344.06
367.4	348.13
367.781	370.95
368.163	373.66
368.544	352.19
368.925	387.22
369.306	340.67
369.688	350.39
370.069	346.77
370.45	356.71
370.831	354.68
371.212	352.65
371.593	368.24
371.974	354.45
372.355	361.69
372.736	364.62
373.117	361.69
373.498	353.1
373.879	372.08
374.26	373.89
374.641	380.89
375.021	377.73
375.402	382.93
375.783	394
376.163	408.24
376.544	417.05
376.925	387.45
377.305	371.63
377.686	358.97
378.066	394.68
378.447	398.07
378.827	405.3
379.208	392.65
379.588	409.14
379.968	402.14
380.349	414.34
380.729	405.07
381.109	405.07
381.489	419.09
381.87	427.67
382.25	428.8
382.63	413.21
383.01	396.26
383.39	407.56
383.77	405.07
384.15	437.16
384.53	441.46
384.91	440.1
385.29	440.1
385.67	428.12
386.049	461.8
386.429	424.96
386.809	437.84
387.189	463.6
387.568	461.8
387.948	448.24
388.328	461.12
388.707	470.16
389.087	486.43
389.466	473.09
389.846	479.42
390.225	456.15
390.605	485.3
390.984	504.51
391.363	508.35
391.743	490.95
392.122	518.07
392.501	517.39
392.881	502.25
393.26	514.22
393.639	514.22
394.018	530.95
394.397	507.22
394.776	546.31
395.155	533.21
395.534	531.62
395.913	531.4
396.292	575.92
396.671	547.22
397.05	564.39
397.429	556.71
397.808	553.09
398.186	566.65
398.565	574.56
398.944	580.44
399.323	586.99
399.701	577.05
400.08	589.25
400.458	583.6
400.837	613.88
401.215	605.29
401.594	638.51
401.972	648.23
402.351	634.9
402.729	628.12
403.107	653.66
403.486	669.02
403.864	641
404.242	678.97
404.62	696.37
404.999	676.48
405.377	691.62
405.755	691.39
406.133	718.74
406.511	723.26
406.889	743.37
407.267	755.12
407.645	785.63
408.023	761.9
408.401	794.89
408.779	797.61
409.156	836.48
409.534	826.53
409.912	830.15
410.29	860.66
410.667	890.26
411.045	924.83
411.422	914.44
411.8	897.04
412.178	958.05
412.555	961.44
412.933	969.35
413.31	1020.43
413.687	1012.06
414.065	1018.84
414.442	1047.09
414.819	1086.64
415.197	1072.63
415.574	1118.05
415.951	1106.98
416.328	1147.2
416.705	1156.24
417.082	1176.35
417.46	1167.54
417.837	1187.88
418.214	1192.4
418.591	1212.06
418.967	1232.62
419.344	1221.1
419.721	1274.66
420.098	1294.09
420.475	1281.66
420.852	1306.29
421.228	1340.19
421.605	1337.48
421.982	1367.31
422.358	1395.56
422.735	1403.47
423.111	1413.86
423.488	1434.65
423.864	1434.65
424.241	1493.41
424.617	1516.46
424.994	1509.9
425.37	1546.96
425.746	1553.07
426.123	1572.95
426.499	1578.6
426.875	1639.17
427.251	1668.32
427.627	1703.8
428.003	1692.95
428.379	1731.59
428.756	1718.03
429.132	1777.24
429.507	1807.52
429.883	1803.68
430.259	1856.34
430.635	1874.64
431.011	1912.83
431.387	1950.8
431.763	1978.14
432.138	1968.42
432.514	2035.77
432.89	2009.55
433.265	2080.74
433.641	2122.32
434.016	2124.8
434.392	2181.98
434.767	2250
435.143	2242.09
435.518	2234.18
435.894	2292.03
436.269	2345.81
436.644	2367.06
437.02	2375.87
437.395	2434.63
437.77	2433.04
438.145	2519.14
438.52	2513.04
438.895	2558.92
439.271	2548.07
439.646	2649.08
440.021	2667.61
440.395	2691.57
440.77	2674.84
441.145	2729.31
441.52	2776.31
441.895	2766.37
442.27	2808.63
442.645	2829.42
443.019	2853.6
443.394	2850.43
443.769	2890.21
444.143	2886.36
444.518	2961.62
444.892	2952.8
445.267	2984.22
445.641	2966.59
446.016	2978.57
446.39	3073.03
446.764	3050.2
447.139	3053.82
447.513	3101.95
447.887	3100.14
448.262	3155.06
448.636	3181.72
449.01	3210.88
449.384	3229.63
449.758	3273.02
450.132	3312.79
450.506	3338.1
450.88	3372.45
451.254	3355.96
451.628	3449.29
452.002	3475.05
452.376	3509.85
452.75	3557.08
453.123	3620.58
453.497	3662.16
453.871	3650.19
454.244	3787.13
454.618	3762.05
454.992	3783.06
455.365	3875.49
455.739	3896.06
456.112	3993
456.486	4009.95
456.859	4019.67
457.232	4118.87
457.606	4183.96
457.979	4268.02
458.352	4335.59
458.725	4372.43
459.099	4381.47
459.472	4442.26
459.845	4567.22
460.218	4565.42
460.591	4605.87
460.964	4680.44
461.337	4774.22
461.71	4881.34
462.083	4877.27
462.456	4904.16
462.829	4936.93
463.201	5059.41
463.574	5098.51
463.947	5101.67
464.32	5225.51
464.692	5269.35
465.065	5345.28
465.438	5348.9
465.81	5435
466.183	5464.15
466.555	5620.53
466.928	5690.36
467.3	5689.45
467.672	5787.08
468.045	5919.51
468.417	5941.65
468.789	5947.98
469.161	6047.19
469.534	6097.13
469.906	6218.48
470.278	6302.09
470.65	6329.21
471.022	6515.2
471.394	6574.86
471.766	6654.85
472.138	6732.82
472.51	6913.6
472.882	6939.59
473.253	7048.06
473.625	7173.71
473.997	7270.2
474.369	7298.9
474.74	7407.38
475.112	7522.63
475.484	7632.68
475.855	7811.66
476.227	7877.87
476.598	8030.18
476.97	8185.21
477.341	8382.94
477.713	8417.97
478.084	8494.58
478.455	8707.23
478.827	8792.88
479.198	9055.47
479.569	9095.69
479.94	9322.58
480.311	9368.68
480.682	9623.14
481.053	9807.31
481.424	9930.93
481.795	10061.54
482.166	10239.62
482.537	10284.59
482.908	10519.16
483.279	10582.66
483.65	10890.9
484.021	11033.27
484.391	11164.57
484.762	11289.53
485.133	11412.02
485.503	11583.76
485.874	11814.49
486.244	11886.13
486.615	12172.67
486.985	12286.57
487.356	12484.3
487.726	12564.98
488.097	12876.61
488.467	12954.35
488.837	13175.36
489.207	13251.06
489.578	13523.37
489.948	13639.08
490.318	13812.41
490.688	13863.93
491.058	14089.46
491.428	14231.15
491.798	14451.03
492.168	14700.07
492.538	14794.98
492.908	14984.58
493.278	15066.38
493.648	15095.08
494.017	15294.4
494.387	15480.38
494.757	15548.63
495.126	15760.38
495.496	15714.28
495.866	15918.34
496.235	16055.06
496.605	16175.05
496.974	16217.77
497.344	16463.18
497.713	16452.56
498.082	16505.89
498.452	16697.53
498.821	16847.81
499.19	16810.74
499.559	17105.88
499.928	17047.35
500.298	17082.6
500.667	17315.59
501.036	17265.87
501.405	17509.94
501.774	17413.44
502.143	17532.53
502.512	17571.63
502.88	17890.04
503.249	17791.74
503.618	17984.05
503.987	17908.79
504.356	18067.43
504.724	18207.77
505.093	18229.01
505.462	18335.9
505.83	18450.7
506.199	18605.05
506.567	18766.85
506.936	18776.34
507.304	18929.11
507.672	18938.15
508.041	19057.47
508.409	19122.55
508.777	19295.88
509.145	19417.68
509.514	19320.96
509.882	19522.09
510.25	19541.29
510.618	19728.63
510.986	19772.47
511.354	19948.29
511.722	20044.56
512.09	20195.97
512.458	20165.46
512.826	20281.61
513.193	20288.62
513.561	20423.08
513.929	20573.36
514.297	20731.77
514.664	20859.45
515.032	21007.7
515.4	21065.32
515.767	21120.91
516.135	21173.34
516.502	21023.74
516.869	21462.83
517.237	21515.93
517.604	21360.46
517.972	21716.38
518.339	21773.33
518.706	21853.55
519.073	21979.65
519.44	22071.17
519.808	22154.56
520.175	22266.19
520.542	22422.8
520.909	22646.52
521.276	22594.77
521.643	22836.12
522.009	22925.39
522.376	22973.75
522.743	23193.4
523.11	23415.54
523.477	23528.53
523.843	23622.77
524.21	23830.22
524.577	23879.71
524.943	24044.45
525.31	24130.55
525.676	24321.73
526.043	24458.68
526.409	24644.21
526.776	24685.57
527.142	24907.71
527.508	24944.99
527.874	25144.31
528.241	25214.82
528.607	25234.7
528.973	25542.27
529.339	25523.96
529.705	25673.34
530.071	25710.17
530.437	25850.51
530.803	25963.95
531.169	26022.25
531.535	26078.75
531.901	26211.85
532.267	26200.78
532.632	26412.07
532.998	26332.98
533.364	26546.53
533.73	26616.81
534.095	26640.09
534.461	26759.41
534.826	26757.38
535.192	26686.64
535.557	27045.5
535.923	26873.98
536.288	27012.06
536.653	27034.88
537.019	26999.4
537.384	26919.63
537.749	27043.24
538.114	27110.13
538.479	27026.97
538.845	26983.81
539.21	26995.79
539.575	27176.35
539.94	27106.52
540.305	27276.23
540.67	27183.81
541.034	27212.05
541.399	27213.41
541.764	27322.33
542.129	27228.55
542.494	27238.72
542.858	27334.54
543.223	27180.42
543.587	27355.33
543.952	27334.08
544.316	27276.68
544.681	27100.64
545.045	27280.98
545.41	27325.27
545.774	27163.01
546.138	27217.48
546.503	27192.39
546.867	27286.85
547.231	27335.89
547.595	27318.49
547.959	27262
548.324	27155.33
548.688	27279.17
549.052	27243.92
549.416	27118.95
549.779	27187.42
550.143	27100.64
550.507	27275.33
550.871	27146.07
551.235	27140.87
551.599	27201.66
551.962	27181.32
552.326	27197.14
552.689	27165.27
553.053	27091.6
553.417	27114.65
553.78	27325.95
554.143	27115.56
554.507	27179.96
554.87	27196.23
555.234	27334.54
555.597	27067.42
555.96	27207.08
556.323	27217.7
556.686	27231.49
557.05	27388.32
557.413	27227.65
557.776	27344.48
558.139	27336.8
558.502	27408.21
558.865	27367.75
559.228	27510.35
559.59	27415.44
559.953	27423.12
560.316	27636.22
560.679	27644.81
561.041	27685.03
561.404	27713.51
561.767	27800.29
562.129	27670.8
562.492	27831.92
562.854	27712.83
563.217	27651.14
563.579	27803.68
563.941	27965.48
564.304	27992.82
564.666	28090.67
565.028	28067.17
565.39	28097
565.753	28127.28
566.115	28040.96
566.477	28234.17
566.839	28203.44
567.201	28427.84
567.563	28299.48
567.925	28525.24
568.287	28484.56
568.648	28513.04
569.01	28592.13
569.372	28829.19
569.734	28774.05
570.095	28857.89
570.457	28996.86
570.819	28966.81
571.18	28880.48
571.542	29039.58
571.903	29056.07
572.265	29136.07
572.626	29094.94
572.987	29193.47
573.349	29339.23
573.71	29470.52
574.071	29436.18
574.432	29486.57
574.794	29610.41
575.155	29668.49
575.516	29537.64
575.877	29718.65
576.238	29562.05
576.599	29764.53
576.96	29817.18
577.32	29799.33
577.681	29899.67
578.042	29981.25
578.403	29935.15
578.763	30008.59
579.124	29895.82
579.485	30168.59
579.845	30110.73
580.206	30131.52
580.566	30155.93
580.927	30134.91
581.287	30223.27
581.648	30235.7
582.008	30388.92
582.368	30404.74
582.728	30341.24
583.089	30384.85
583.449	30423.72
583.809	30418.52
584.169	30470.5
584.529	30405.64
584.889	30686.76
585.249	30416.49
585.609	30327.45
585.969	30463.49
586.329	30332.2
586.688	30484.74
587.048	30522.7
587.408	30500.33
587.768	30657.39
588.127	30658.97
588.487	30441.35
588.846	30748.01
589.206	30457.62
589.565	30468.69
589.925	30673.66
590.284	30663.49
590.643	30644.5
591.003	30707.1
591.362	30827.78
591.721	30721.57
592.08	30789.59
592.44	30811.96
592.799	30902.13
593.158	30833.43
593.517	30731.06
593.876	30923.14
594.235	30852.41
594.593	30900.54
594.952	30973.31
595.311	30739.64
595.67	31065.96
596.029	30970.82
596.387	31084.27
596.746	31170.14
597.104	31096.47
597.463	30975.8
597.822	31178.28
598.18	31084.27
598.538	31118.84
598.897	31365.62
599.255	31223.47
599.613	31517.7
599.972	31341.44
600.33	31304.15
600.688	31237.48
601.046	31460.98
601.404	31533.75
601.762	31402.9
602.12	31581.66
602.478	31621.43
602.836	31536.91
603.194	31518.15
603.552	31536.91
603.91	31384.82
604.268	31772.61
604.625	31589.11
604.983	31793.63
605.341	31710.92
605.698	31920.18
606.056	32064.81
606.413	31729.67
606.771	32015.32
607.128	32023.68
607.485	31906.84
607.843	31999.95
608.2	32093.96
608.557	32152.49
608.914	32076.78
609.272	32381.63
609.629	32450.79
609.986	32545.7
610.343	32340.96
610.7	32677.9
611.057	32635.87
611.414	32514.51
611.771	32672.47
612.127	32654.62
612.484	32784.56
612.841	32860.04
613.198	32707.73
613.554	32738.91
613.911	32893.26
614.267	33025.46
614.624	32986.59
614.98	33106.59
615.337	33311.33
615.693	33262.06
616.05	33335.51
616.406	33360.37
616.762	33356.07
617.118	33475.62
617.475	33413.92
617.831	33586.35
618.187	33580.25
618.543	33420.93
618.899	33698.89
619.255	33718.55
619.611	33827.02
619.967	33825.44
620.323	34080.35
620.678	33869.5
621.034	33841.71
621.39	33682.39
621.746	33784.31
622.101	34191.3
622.457	33807.59
622.812	34166.45
623.168	34200.57
623.523	34106.11
623.879	34203.73
624.234	33997.64
624.589	34048.48
624.945	34041.25
625.3	34137.29
625.655	34087.58
626.01	34317.63
626.365	34250.29
626.72	34089.16
627.075	34077.41
627.43	34067.24
627.785	34109.95
628.14	34192.89
628.495	34047.13
628.85	34250.96
629.205	34125.54
629.559	34188.82
629.914	34210.51
630.269	34212.55
630.623	34034.7
630.978	33965.55
631.332	34162.6
631.687	34071.76
632.041	33960.8
632.396	33986.79
632.75	33999.9
633.104	34126.67
633.459	33870.63
633.813	34002.61
634.167	33876.28
634.521	33846.23
634.875	33916.74
635.229	33911.99
635.583	33686.91
635.937	33592.68
636.291	33612.11
636.645	33522.4
636.999	33539.57
637.352	33588.16
637.706	33343.19
638.06	33640.13
638.413	33457.76
638.767	33402.17
639.121	33499.12
639.474	33443.3
639.828	33238.34
640.181	33308.16
640.534	33294.15
640.888	33208.73
641.241	33129.64
641.594	33151.33
641.947	33219.13
642.301	33059.13
642.654	33159.47
643.007	33098.45
643.36	33156.08
643.713	33155.4
644.066	33208.05
644.419	32899.13
644.771	32757.9
645.124	32344.12
645.477	32326.27
645.83	32368.3
646.182	32277
646.535	32179.83
646.888	32253.28
647.24	32173.28
647.593	32313.61
647.945	32244.01
648.298	32075.65
648.65	32068.65
649.002	31884.92
649.355	31934.64
649.707	31815.32
650.059	31823.46
650.411	32407.85
650.763	32502.76
651.115	33030.43
651.467	32770.32
651.819	32776.43
652.171	32830.21
652.523	32581.63
652.875	32696.43
653.227	32574.4
653.578	32939.36
653.93	32795.41
654.282	32717.9
654.633	32642.19
654.985	32802.64
655.337	32680.84
655.688	32727.16
656.039	32828.63
656.391	32755.86
656.742	32684.23
657.094	32760.38
657.445	32893.03
657.796	32806.03
658.147	32745.47
658.498	32753.15
658.849	32970.77
659.2	32865.69
659.551	32789.53
659.902	32964.67
660.253	32922.41
660.604	33002.18
660.955	32890.55
661.306	33043.54
661.656	33000.83
662.007	32973.48
662.358	32925.57
662.708	33021.62
663.059	33013.48
663.409	32965.57
663.76	33090.54
664.11	33102.52
664.461	33202.86
664.811	33211.44
665.161	33095.51
665.511	33154.72
665.862	33145
666.212	33267.26
666.562	33333.7
666.912	33149.07
667.262	33062.97
667.612	33134.38
667.962	33244.21
668.312	33048.96
668.662	33313.14
669.011	33083.08
669.361	33191.56
669.711	33282.18
670.06	33182.52
670.41	33013.03
670.76	33131.67
671.109	33235.17
671.459	33141.16
671.808	33161.27
672.157	33202.86
672.507	32911.56
672.856	33014.61
673.205	33050.77
673.554	33196.53
673.904	33057.77
674.253	33284.21
674.602	32998.57
674.951	32639.25
675.3	32455.3
675.649	32955.4
675.998	32955.18
676.346	32965.8
676.695	32935.07
677.044	32815.75
677.393	32807.61
677.741	33007.15
678.09	32854.39
678.438	32673.6
678.787	32755.18
679.135	32750.21
679.484	32662.08
679.832	32632.7
680.181	32467.96
680.529	32589.76
680.877	32516.09
681.225	32491.69
681.573	32730.78
681.922	32372.82
682.27	32374.4
682.618	32379.83
682.966	32057.12
683.314	32180.74
683.661	32090.12
684.009	31961.98
684.357	31814.87
684.705	31790.69
685.053	31733.06
685.4	31704.82
685.748	31535.33
686.095	31533.52
686.443	31452.17
686.79	31397.03
687.138	31454.43
687.485	31386.41
687.832	31213.08
688.18	31236.35
688.527	31151.84
688.874	30947.32
689.221	30999.07
689.568	30765.41
689.915	30543.26
690.262	30648.12
690.609	30564.51
690.956	30371.52
691.303	30365.42
691.65	30072.77
691.997	30174.46
692.344	29954.35
692.69	29920.91
693.037	29898.76
693.383	29727.69
693.73	29637.98
694.077	29477.76
694.423	29423.97
694.769	29249.51
695.116	29303.52
695.462	28986.02
695.808	28955.51
696.155	28882.52
696.501	28679.58
696.847	28762.29
697.193	28518.69
697.539	28521.4
697.885	28287.5
698.231	28262.19
698.577	28148.07
698.923	28146.49
699.269	27847.06
699.614	27740.4
699.96	27561.65
700.306	27617.47
700.651	27622.44
700.997	27337.93
701.342	27306.51
701.688	27215.44
702.033	27079.17
702.379	27115.56
702.724	26829.01
703.069	26921.89
703.415	26692.97
703.76	26621.11
704.105	26513.77
704.45	26394.67
704.795	26256.6
705.14	26142.25
705.485	26111.29
705.83	26062.48
706.175	26005.3
706.52	25846.21
706.865	25804.41
707.209	25655.48
707.554	25677.18
707.899	25719.66
708.243	25544.75
708.588	25418.2
708.932	25381.14
709.277	25259.34
709.621	25176.17
709.966	25067.7
710.31	25024.54
710.654	25017.31
710.998	25011.88
711.342	24927.37
711.687	24891.66
712.031	24767.82
712.375	24804.66
712.719	24658.9
713.063	24672.01
713.407	24716.53
713.75	24673.81
714.094	24627.04
714.438	24379.58
714.782	24412.58
715.125	24357.89
715.469	24459.81
715.812	24180.27
716.156	24250.32
716.499	24225.46
716.843	24226.14
717.186	24203.09
717.53	24311.56
717.873	24257.78
718.216	24214.84
718.559	24083.32
718.902	23983.66
719.246	24084.9
719.589	23962.42
719.932	23968.97
720.275	23951.12
720.617	23887.85
720.96	23871.12
721.303	23906.38
721.646	23975.75
721.989	23787.74
722.331	24007.62
722.674	23833.84
723.016	23922.87
723.359	23854.85
723.701	23838.58
724.044	23867.73
724.386	23773.27
724.729	23883.1
725.071	23736.21
725.413	23900.05
725.755	23746.38
726.097	23743.22
726.439	23701.86
726.782	23715.42
727.124	23949.09
727.465	23755.19
727.807	23701.64
728.149	23826.38
728.491	23682.43
728.833	23834.06
729.175	23830.67
729.516	23754.74
729.858	23805.14
730.199	23945.7
730.541	23873.84
730.882	23835.87
731.224	23878.58
731.565	23937.11
731.906	23974.4
732.248	23994.28
732.589	23914.96
732.93	24012.81
733.271	23962.65
733.612	24011.46
733.953	24090.1
734.294	24050.78
734.635	24006.94
734.976	24258.01
735.317	24178.69
735.658	24215.3
735.999	24241.28
736.339	24228.18
736.68	24292.13
737.021	24290.55
737.361	24371.9
737.702	24506.36
738.042	24427.27
738.383	24496.64
738.723	24723.76
739.063	24573.03
739.404	24748.16
739.744	24686.92
740.084	24842.85
740.424	24887.14
740.764	24876.75
741.104	25172.11
741.444	25044.88
741.784	25022.73
742.124	25300.69
742.464	25325.32
742.804	25255.04
743.143	25329.62
743.483	25443.96
743.823	25542.27
744.162	25680.34
744.502	25841.24
744.841	25727.8
745.181	26007.11
745.52	26034.46
745.86	26281
746.199	26300.44
746.538	26486.42
746.877	26741.33
747.216	26716.92
747.556	26737.94
747.895	26949.69
748.234	26963.92
748.573	27097.93
748.911	27342.22
749.25	27460.18
749.589	27447.3
749.928	27746.05
750.267	27986.72
750.605	27903.56
750.944	28211.12
751.283	28332.7
751.621	28494.73
751.96	28647.5
752.298	28681.62
752.636	29039.35
752.975	29104.66
753.313	29220.59
753.651	29535.61
753.989	29573.57
754.327	29834.58
754.666	29839.55
755.004	30116.61
755.342	30386.66
755.679	30536.94
756.017	30544.62
756.355	30846.99
756.693	31001.33
757.031	31181.21
757.368	31182.34
757.706	31404.03
758.044	31555.67
758.381	31798.6
758.719	31787.07
759.056	32140.28
759.394	32156.33
759.731	32167.4
760.068	32382.09
760.405	32597.45
760.743	32558.58
761.08	32907.27
761.417	32873.15
761.754	32994.73
762.091	33142.07
762.428	33130.77
762.765	33104.1
763.102	33224.55
763.438	33479.01
763.775	33361.72
764.112	33518.1
764.449	33826.34
764.785	33690.53
765.122	33662.5
765.458	33868.38
765.795	33861.14
766.131	34074.47
766.467	34105.2
766.804	33969.62
767.14	34137.29
767.476	34224.75
767.812	34172.32
768.148	34172.1
768.485	34387.01
768.821	34172.77
769.157	34196.28
769.492	34207.35
769.828	34201.25
770.164	34070.63
770.5	34013
770.836	34148.14
771.171	34042.61
771.507	34161.7
771.842	34063.17
772.178	34085.32
772.513	34068.6
772.849	34032.66
773.184	33900.92
773.519	34004.42
773.855	33914.25
774.19	33911.09
774.525	33919.22
774.86	33827.25
775.195	33669.51
775.53	33592
775.865	33539.12
776.2	33417.09
776.535	33315.62
776.87	33355.85
777.205	33197.43
777.539	33093.03
777.874	33297.77
778.209	33050.32
778.543	33095.29
778.878	32836.76
779.212	32920.83
779.547	32697.78
779.881	32717.44
780.215	32617.79
780.55	32761.74
780.884	32401.97
781.218	32457.11
781.552	32416.21
781.886	32362.88
782.22	32095.77
782.554	32019.38
782.888	31863.68
783.222	31903.23
783.556	31653.29
783.889	31621.65
784.223	31409.68
784.557	31500.3
784.89	31611.71
785.224	31241.55
785.557	31248.78
785.891	31099.86
786.224	31120.65
786.558	31095.57
786.891	30829.36
787.224	30725.18
787.557	30574.45
787.891	30613.77
788.224	30425.08
788.557	30491.29
788.89	30463.27
789.223	30396.38
789.556	30169.49
789.888	30147.12
790.221	30059.66
790.554	29959.55
790.887	29804.08
791.219	29817.41
791.552	29609.28
791.884	29462.62
792.217	29482.28
792.549	29411.77
792.882	29231.66
793.214	29176.52
793.546	29222.17
793.879	28966.58
794.211	28771.11
794.543	28984.21
794.875	28730.21
795.207	28793.48
795.539	28639.36
795.871	28683.2
796.203	28619.02
796.535	28346.71
796.867	28383.1
797.198	28137.9
797.53	28253.38
797.862	28109.43
798.193	28009.77
798.525	27874.18
798.856	27955.99
799.188	27633.51
799.519	27572.5
799.85	27490.92
800.182	27562.78
800.513	27616.34
800.844	27203.69
801.175	27501.08
801.506	27378.83
801.837	27160.75
802.168	27128.44
802.499	27198.72
802.83	26925.05
803.161	26857.26
803.491	26869.46
803.822	26975
804.153	26633.09
804.483	26556.93
804.814	26475.58
805.145	26421.79
805.475	26423.15
805.805	26378.18
806.136	26402.36
806.466	26179.99
806.796	26256.82
807.126	25986.32
807.457	26029.94
807.787	26049.15
808.117	25861.35
808.447	25923.73
808.777	25925.53
809.107	25644.18
809.436	25613.22
809.766	25702.26
810.096	25711.3
810.426	25486.9
810.755	25595.15
811.085	25551.76
811.414	25410.52
811.744	25258.88
812.073	25310.63
812.403	25245.32
812.732	25187.25
813.061	25191.54
813.39	25165.55
813.719	24959
814.049	25178.89
814.378	25091.2
814.707	25008.72
815.036	24930.76
815.365	24743.64
815.693	24629.07
816.022	24674.94
816.351	24556.08
816.68	24394.05
817.008	24684.21
817.337	24321.51
817.665	24342.3
817.994	24482.63
818.322	24482.63
818.651	24288.74
818.979	24218.69
819.307	24338.68
819.636	24198.12
819.964	24093.72
820.292	24145.24
820.62	24042.64
820.948	24047.39
821.276	24227.72
821.604	24010.56
821.932	24295.97
822.259	24158.12
822.587	23991.8
822.915	24010.78
823.243	24145.92
823.57	23962.42
823.898	24165.35
824.225	24090.1
824.553	23924
824.88	24119.03
825.207	24127.39
825.535	24072.93
825.862	24045.81
826.189	23925.81
826.516	24184.11
826.843	24105.92
827.17	24286.71
827.497	24148.18
827.824	24108.86
828.151	24241.06
828.478	24072.02
828.805	24203.77
829.131	24175.3
829.458	24234.96
829.785	24011.01
830.111	24041.51
830.438	24261.62
830.764	24252.13
831.09	24191.12
831.417	23964
831.743	24178.91
832.069	24105.02
832.395	23994.28
832.722	24091
833.048	23984.12
833.374	24038.35
833.7	23987.28
834.026	24079.03
834.351	24069.31
834.677	24050.33
835.003	24032.25
835.329	24061.85
835.654	24011.46
835.98	23867.96
836.306	23894.85
836.631	23868.64
836.956	24015.07
837.282	23887.85
837.607	23971.91
837.932	23890.33
838.258	23826.38
838.583	23857.34
838.908	23704.8
839.233	23886.26
839.558	23603.56
839.883	23617.8
840.208	23502.09
840.533	23577.57
840.858	23573.96
841.182	23497.8
841.507	23550.91
841.832	23422.55
842.156	23419.38
842.481	23453.73
842.805	23307.07
843.13	23114.76
843.454	23183.01
843.778	23138.04
844.103	23087.64
844.427	23122.44
844.751	23050.13
845.075	23034.08
845.399	22940.53
845.723	22884.26
846.047	22813.75
846.371	22668.67
846.695	22608.11
847.019	22490.14
847.343	22426.19
847.666	22328.34
847.99	22160.89
848.313	22172.86
848.637	22092.19
848.96	22009.03
849.284	21965.41
849.607	21826.88
849.931	21858.75
850.254	21661.46
850.577	21535.37
850.9	21374.47
851.223	21488.36
851.546	21313.45
851.869	21179.9
852.192	21364.3
852.515	21099.45
852.838	21026.45
853.161	20896.51
853.483	20730.19
853.806	20816.74
854.129	20780.58
854.451	20757.76
854.774	20580.36
855.096	20531.78
855.419	20485.22
855.741	20416.07
856.063	20281.16
856.385	20334.49
856.708	20270.77
857.03	20164.78
857.352	20119.13
857.674	20091.79
857.996	19955.07
858.318	19964.79
858.64	19794.85
858.961	19752.59
859.283	19730.44
859.605	19710.56
859.926	19695.19
860.248	19706.26
860.57	19459.49
860.891	19464.01
861.212	19521.63
861.534	19435.53
861.855	19257.01
862.176	19440.28
862.498	19375.42
862.819	19348.98
863.14	19295.65
863.461	19259.49
863.782	19148.31
864.103	19171.81
864.424	19057.47
864.745	19127.75
865.065	18964.13
865.386	18871.26
865.707	18936.56
866.027	18959.16
866.348	18957.13
866.668	18829.22
866.989	18764.37
867.309	18710.36
867.63	18723.91
867.95	18744.7
868.27	18603.69
868.59	18664.93
868.91	18666.74
869.23	18606.18
869.55	18552.85
869.87	18557.14
870.19	18391.95
870.51	18438.27
870.83	18383.81
871.15	18372.51
871.469	18388.78
871.789	18376.35
872.109	18395.34
872.428	18167.32
872.748	18254.55
873.067	18220.65
873.386	18132.52
873.706	18209.58
874.025	18026.76
874.344	18042.12
874.663	18163.7
874.982	18148.56
875.301	17972.97
875.62	18016.59
875.939	17918.06
876.258	17942.01
876.577	17789.48
876.896	17854.33
877.214	17887.1
877.533	17819.08
877.852	17836.25
878.17	17745.64
878.489	17785.63
878.807	17741.79
879.125	17655.02
879.444	17713.09
879.762	17606.66
880.08	17604.4
880.398	17528.69
880.716	17595.81
881.034	17503.83
881.352	17439.2
881.67	17453.89
881.988	17423.16
882.306	17270.17
882.624	17320.56
882.941	17293.67
883.259	17282.14
883.577	17113.11
883.894	17151.3
884.212	17093.22
884.529	16993.79
884.846	17054.58
885.164	16981.81
885.481	16923.96
885.798	17008.48
886.115	16772.33
886.432	16892.1
886.75	16850.29
887.067	16741.37
887.383	16715.15
887.7	16728.71
888.017	16589.28
888.334	16575.95
888.651	16617.98
888.967	16577.98
889.284	16438.55
889.6	16337.76
889.917	16289.63
890.233	16297.76
890.55	16240.59
890.866	16249.63
891.182	16192.68
891.498	16219.8
891.815	16006.47
892.131	16073.14
892.447	16012.57
892.763	15901.16
893.079	15985
893.395	15924.44
893.71	15834.27
894.026	15704.33
894.342	15702.07
894.657	15592.92
894.973	15577.78
895.289	15521.06
895.604	15527.39
895.92	15340.73
896.235	15467.28
896.55	15399.03
896.865	15331.24
897.181	15323.33
897.496	15250.79
897.811	15114.97
898.126	15091.02
898.441	15053.73
898.756	15105.25
899.071	14957.23
899.386	14937.8
899.7	14806.05
900.015	14648.77
900.33	14669.11
900.644	14665.94
900.959	14553.4
901.273	14457.59
901.588	14470.69
901.902	14439.96
902.216	14401.32
902.531	14295.78
902.845	14339.85
903.159	14204.49
903.473	14174.2
903.787	14062.57
904.101	14033.87
904.415	14000.65
904.729	13993.64
905.042	13948.22
905.356	13889.92
905.67	13894.21
905.984	13823.48
906.297	13719.3
906.611	13714.1
906.924	13626.65
907.237	13657.83
907.551	13530.15
907.864	13476.37
908.177	13492.19
908.491	13414.9
908.804	13279.76
909.117	13243.83
909.43	13162.25
909.743	13139.88
910.056	13153.44
910.368	13029.37
910.681	13046.78
910.994	12955.48
911.307	12906.89
911.619	12673.9
911.932	12730.4
912.244	12671.87
912.557	12577.86
912.869	12580.57
913.181	12550.97
913.494	12570.86
913.806	12433.46
914.118	12352.78
914.43	12250.64
914.742	12329.05
915.054	12245.89
915.366	12247.93
915.678	12152.56
915.99	12004.09
916.302	11970.87
916.613	11990.98
916.925	11967.26
917.236	11900.82
917.548	11832.12
917.859	11840.71
918.171	11682.52
918.482	11680.26
918.794	11615.17
919.105	11600.71
919.416	11545.35
919.727	11496.53
920.038	11455.86
920.349	11374.05
920.66	11277.33
920.971	11330.66
921.282	11252.47
921.593	11237.33
921.903	11102.87
922.214	11122.98
922.525	10970.9
922.835	11000.95
923.146	10992.37
923.456	10904.01
923.767	10880.96
924.077	10852.71
924.387	10820.39
924.697	10742.88
925.008	10762.32
925.318	10718.02
925.628	10679.15
925.938	10619.04
926.248	10537.92
926.558	10447.97
926.867	10418.6
927.177	10416.56
927.487	10265.15
927.796	10236.23
928.106	10280.07
928.416	10196.68
928.725	10217.25
929.034	10143.8
929.344	10160.07
929.653	10114.88
929.962	9996.69
930.271	9961.88
930.581	9919.17
930.89	9912.62
931.199	9786.97
931.508	9839.63
931.817	9722.8
932.125	9705.39
932.434	9716.02
932.743	9534.78
933.051	9606.41
933.36	9596.92
933.669	9467.66
933.977	9443.25
934.286	9469.02
934.594	9343.82
934.902	9350.38
935.21	9267.89
935.519	9218.4
935.827	9251.62
936.135	9102.7
936.443	9057.28
936.751	9059.99
937.059	9054.11
937.367	8931.86
937.674	8974.79
937.982	8894.34
938.29	8881.69
938.597	8905.64
938.905	8832.2
939.213	8825.42
939.52	8735.7
939.827	8728.92
940.135	8704.74
940.442	8651.86
940.749	8572.09
941.056	8628.13
941.363	8448.25
941.67	8438.99
941.977	8473.56
942.284	8365.77
942.591	8395.6
942.898	8395.6
943.205	8363.51
943.511	8295.94
943.818	8251.87
944.125	8179.56
944.431	8130.75
944.738	8118.54
945.044	8130.52
945.35	7996.74
945.657	8016.4
945.963	8015.95
946.269	7971.88
946.575	7978.43
946.881	7882.39
947.187	7878.1
947.493	7824.09
947.799	7752.45
948.105	7730.76
948.41	7652.57
948.716	7688.95
949.022	7610.08
949.327	7551.55
949.633	7505.68
949.938	7556.07
950.244	7543.19
950.549	7427.26
950.854	7435.4
951.16	7408.96
951.465	7311.56
951.77	7328.06
952.075	7283.76
952.38	7271.79
952.685	7252.58
952.99	7193.6
953.294	7235.18
953.599	7145.46
953.904	7105.24
954.209	7051.45
954.513	7063.66
954.818	7022.3
955.122	6966.48
955.426	6969.2
955.731	6915.64
956.035	6836.32
956.339	6860.72
956.643	6812.36
956.948	6797
957.252	6769.88
957.556	6762.87
957.86	6720.84
958.163	6661.18
958.467	6669.09
958.771	6594.74
959.075	6556.32
959.378	6575.76
959.682	6492.37
959.985	6510.68
960.289	6454.18
960.592	6423.67
960.896	6435.88
961.199	6382.77
961.502	6311.13
961.805	6330.34
962.108	6255.32
962.411	6286.95
962.714	6220.06
963.017	6201.53
963.32	6164.7
963.623	6191.14
963.926	6156.79
964.228	6088.77
964.531	6119.5
964.833	6086.96
965.136	6003.34
965.438	5985.94
965.741	5926.28
966.043	5945.04
966.345	5964.48
966.648	5918.6
966.95	5888.32
967.252	5817.81
967.554	5788.21
967.856	5819.62
968.158	5731.94
968.46	5767.42
968.761	5646.07
969.063	5718.61
969.365	5658.72
969.666	5616.24
969.968	5590.25
970.269	5517.71
970.571	5531.27
970.872	5506.41
971.174	5501.66
971.475	5513.87
971.776	5452.17
972.077	5373.31
972.378	5399.52
972.679	5402.91
972.98	5387.77
973.281	5380.31
973.582	5306.87
973.883	5282.46
974.183	5284.72
974.484	5233.87
974.785	5209.92
975.085	5200.88
975.386	5189.13
975.686	5089.92
975.986	5096.25
976.287	5078.4
976.587	5053.99
976.887	5061.67
977.187	5031.39
977.487	5021.68
977.787	5015.8
978.087	4934.45
978.387	4934.67
978.687	4912.53
978.987	4889.93
979.286	4874.11
979.586	4848.8
979.885	4841.79
980.185	4780.33
980.484	4752.08
980.784	4761.8
981.083	4721.12
981.382	4745.07
981.682	4708.46
981.981	4668.46
982.28	4661.91
982.579	4623.95
982.878	4645.87
983.177	4610.84
983.475	4602.7
983.774	4582.14
984.073	4565.64
984.372	4481.58
984.67	4487
984.969	4449.94
985.267	4440.9
985.566	4412.43
985.864	4358.87
986.162	4381.47
986.461	4390.73
986.759	4338.76
987.057	4265.76
987.355	4282.03
987.653	4283.84
987.951	4222.15
988.249	4225.09
988.547	4227.57
988.844	4190.29
989.142	4177.18
989.44	4161.81
989.737	4117.07
990.035	4112.1
990.332	4089.05
990.63	4081.36
990.927	4023.96
991.224	4046.79
991.521	3998.65
991.819	3984.64
992.116	3995.49
992.413	3900.8
992.71	3929.28
993.006	3938.09
993.303	3877.3
993.6	3849.05
993.897	3861.48
994.193	3862.38
994.49	3833.01
994.787	3832.78
995.083	3788.26
995.379	3757.53
995.676	3760.92
995.972	3718.21
996.268	3690.86
996.565	3647.47
996.861	3684.99
997.157	3647.47
997.453	3648.38
997.749	3604.31
998.044	3609.96
998.34	3560.25
998.636	3536.07
998.932	3519.34
999.227	3486.35
999.523	3478.44
999.818	3460.36
1000.114	3450.19
1000.409	3400.48
1000.704	3409.29
1001	3380.59
1001.295	3362.51
1001.59	3369.06
1001.885	3355.5
1002.18	3327.03
1002.475	3299.46
1002.77	3291.1
1003.065	3249.75
1003.359	3254.04
1003.654	3237.54
1003.949	3214.94
1004.243	3202.97
1004.538	3149.41
1004.832	3155.74
1005.127	3123.19
1005.421	3099.47
1005.715	3097.21
1006.009	3077.77
1006.304	3026.7
1006.598	3007.94
1006.892	3000.49
1007.186	2978.57
1007.48	2974.5
1007.773	2955.06
1008.067	2927.04
1008.361	2941.73
1008.655	2917.32
1008.948	2890.43
1009.242	2836.42
1009.535	2872.35
1009.829	2856.31
1010.122	2861.28
1010.415	2810.89
1010.708	2795.97
1011.001	2776.09
1011.295	2758.91
1011.588	2715.75
1011.881	2724.34
1012.173	2702.19
1012.466	2679.14
1012.759	2662.19
1013.052	2664.68
1013.344	2633.26
1013.637	2605.02
1013.93	2618.8
1014.222	2604.56
1014.514	2544.68
1014.807	2559.82
1015.099	2545.36
1015.391	2510.33
1015.683	2500.84
1015.976	2487.96
1016.268	2458.13
1016.56	2455.64
1016.851	2391.46
1017.143	2409.77
1017.435	2426.04
1017.727	2375.19
1018.018	2356.44
1018.31	2348.75
1018.602	2330.22
1018.893	2354.4
1019.185	2347.85
1019.476	2284.35
1019.767	2281.86
1020.058	2249.77
1020.35	2272.82
1020.641	2226.72
1020.932	2242.54
1021.223	2236.66
1021.514	2206.16
1021.804	2132.49
1022.095	2160.73
1022.386	2147.85
1022.677	2152.15
1022.967	2074.18
1023.258	2084.8
1023.548	2084.13
1023.839	2069.89
1024.129	2043.9
1024.419	2052.94
1024.709	2050.23
1025	1994.86
1025.29	1993.05
1025.58	2006.84
1025.87	1952.38
1026.16	1965.03
1026.449	1926.39
1026.739	1927.52
1027.029	1905.15
1027.319	1903.79
1027.608	1861.31
1027.898	1892.27
1028.187	1882.32
1028.477	1854.53
1028.766	1877.13
1029.055	1824.92
1029.344	1812.72
1029.634	1792.83
1029.923	1791.93
1030.212	1771.59
1030.501	1763
1030.79	1727.98
1031.078	1727.75
1031.367	1720.52
1031.656	1703.35
1031.945	1690.01
1032.233	1680.52
1032.522	1686.4
1032.81	1639.39
1033.099	1632.16
1033.387	1621.09
1033.675	1640.3
1033.963	1620.64
1034.251	1618.83
1034.54	1560.98
1034.828	1572.95
1035.116	1523.91
1035.403	1569.34
1035.691	1533.86
1035.979	1551.03
1036.267	1499.28
1036.554	1525.5
1036.842	1487.08
1037.129	1464.71
1037.417	1481.66
1037.704	1467.65
1037.992	1439.4
1038.279	1447.08
1038.566	1439.85
1038.853	1439.85
1039.14	1439.85
