Data from 291_FLMS001491_009.txt Node
Date: Thu Apr 19 16:45:53 BST 2018
User: hsy
Spectrometer: FLMS00149
Trigger mode: 0
Integration Time (sec): 1.000000E-2
Scans to average: 10
Electric dark correction enabled: true
Nonlinearity correction enabled: false
Boxcar width: 0
XAxis mode: Wavelengths
Number of Pixels in Spectrum: 2048
>>>>>Begin Spectral Data<<<<<
341.393	-17.9
341.776	-17.9
342.16	-17.9
342.543	-59.48
342.927	-74.62
343.31	-73.03
343.693	-64.67
344.077	-68.97
344.46	-66.26
344.843	-58.8
345.226	-42.75
345.61	-37.56
345.993	-20.61
346.376	-14.51
346.759	23.69
347.142	32.27
347.525	44.7
347.908	70.92
348.291	63.46
348.674	88.32
349.057	123.8
349.44	115.66
349.823	133.51
350.206	198.82
350.588	203.57
350.971	226.84
351.354	250.8
351.737	268.88
352.119	278.59
352.502	291.25
352.884	291.02
353.267	308.65
353.65	319.95
354.032	319.27
354.414	356.78
354.797	360.4
355.179	347.29
355.562	335.77
355.944	352.04
356.326	379.38
356.709	380.06
357.091	359.04
357.473	375.54
357.855	387.52
358.238	379.16
358.62	377.35
359.002	368.54
359.384	389.33
359.766	379.61
360.148	371.7
360.53	389.78
360.912	370.8
361.294	369.67
361.676	363.11
362.057	365.82
362.439	380.29
362.821	364.47
363.203	373.51
363.584	363.79
363.966	349.1
364.348	378.03
364.729	367.41
365.111	364.69
365.493	369.89
365.874	366.73
366.256	358.14
366.637	362.21
367.019	368.76
367.4	338.93
367.781	360.85
368.163	370.57
368.544	350.23
368.925	358.82
369.306	379.38
369.688	343.23
370.069	373.28
370.45	360.63
370.831	368.08
371.212	371.02
371.593	373.28
371.974	342.77
372.355	378.7
372.736	372.83
373.117	371.47
373.498	374.86
373.879	378.7
374.26	388.42
374.641	363.56
375.021	366.95
375.402	368.54
375.783	380.29
376.163	383.22
376.544	380.96
376.925	378.25
377.305	370.34
377.686	392.04
378.066	379.38
378.447	354.75
378.827	390.68
379.208	409.44
379.588	394.98
379.968	407.63
380.349	416.67
380.729	406.73
381.109	380.96
381.489	400.63
381.87	410.12
382.25	415.31
382.63	402.43
383.01	423
383.39	432.04
383.77	425.71
384.15	414.86
384.53	428.87
384.91	433.62
385.29	418.25
385.67	427.74
386.049	436.33
386.429	453.96
386.809	474.75
387.189	462.77
387.568	465.71
387.948	450.57
388.328	479.27
388.707	443.79
389.087	480.85
389.466	460.06
389.846	451.7
390.225	473.39
390.605	491.24
390.984	498.02
391.363	503.67
391.743	492.15
392.122	498.25
392.501	536.44
392.881	504.8
393.26	510
393.639	513.62
394.018	546.61
394.397	518.81
394.776	546.84
395.155	548.64
395.534	542.09
395.913	545.03
396.292	538.02
396.671	542.09
397.05	539.83
397.429	558.59
397.808	575.08
398.186	574.63
398.565	561.52
398.944	548.19
399.323	586.83
399.701	592.94
400.08	606.04
400.458	577.8
400.837	601.75
401.215	595.2
401.594	613.27
401.972	616.66
402.351	646.04
402.729	627.51
403.107	673.61
403.486	657.34
403.864	651.47
404.242	690.56
404.62	691.69
404.999	687.4
405.377	700.73
405.755	709.32
406.133	714.97
406.511	737.57
406.889	753.16
407.267	772.14
407.645	784.12
408.023	779.37
408.401	808.07
408.779	819.82
409.156	808.75
409.534	843.33
409.912	876.09
410.29	844.68
410.667	877.9
411.045	894.17
411.422	892.59
411.8	925.13
412.178	971.68
412.555	976.43
412.933	979.82
413.31	1016.65
413.687	1023.89
414.065	1033.15
414.442	1041.29
414.819	1057.33
415.197	1087.84
415.574	1101.17
415.951	1127.61
416.328	1112.7
416.705	1154.5
417.082	1156.09
417.46	1169.64
417.837	1200.38
418.214	1214.61
418.591	1225.91
418.967	1244.9
419.344	1258.23
419.721	1287.16
420.098	1286.93
420.475	1287.38
420.852	1290.55
421.228	1319.7
421.605	1328.51
421.982	1387.04
422.358	1381.16
422.735	1378.68
423.111	1397.89
423.488	1453.03
423.864	1459.58
424.241	1499.35
424.617	1492.8
424.994	1509.97
425.37	1535.28
425.746	1503.65
426.123	1536.41
426.499	1596.07
426.875	1586.58
427.251	1638.56
427.627	1678.78
428.003	1710.87
428.379	1721.04
428.756	1732.57
429.132	1767.82
429.507	1796.75
429.883	1825.9
430.259	1804.88
430.635	1849.4
431.011	1856.18
431.387	1917.65
431.763	1943.86
432.138	1948.38
432.514	1992.9
432.89	2015.72
433.265	2084.65
433.641	2078.77
434.016	2138.66
434.392	2152.9
434.767	2218.43
435.143	2237.86
435.518	2247.13
435.894	2292.78
436.269	2327.13
436.644	2353.57
437.02	2400.35
437.395	2396.28
437.77	2455.26
438.145	2519.44
438.52	2523.28
438.895	2544.3
439.271	2521.02
439.646	2650.06
440.021	2646.67
440.395	2659.77
440.77	2635.59
441.145	2685.08
441.52	2760.79
441.895	2747.46
442.27	2789.04
442.645	2789.94
443.019	2834.69
443.394	2844.4
443.769	2881.46
444.143	2879.2
444.518	2922.59
444.892	2931.18
445.267	2965.3
445.641	2992.42
446.016	3034
446.39	3022.93
446.764	3059.31
447.139	3042.59
447.513	3057.73
447.887	3123.27
448.262	3108.8
448.636	3194
449.01	3203.04
449.384	3259.08
449.758	3210.04
450.132	3328.46
450.506	3314.67
450.88	3354.22
451.254	3364.39
451.628	3433.31
452.002	3494.78
452.376	3458.62
452.75	3523.03
453.123	3564.61
453.497	3586.53
453.871	3623.59
454.244	3710.37
454.618	3750.14
454.992	3799.18
455.365	3835.34
455.739	3913.53
456.112	3957.59
456.486	3975.22
456.859	4020.87
457.232	4136.57
457.606	4209.34
457.979	4262.67
458.352	4298.83
458.725	4331.14
459.099	4365.94
459.472	4461.54
459.845	4469.67
460.218	4548.99
460.591	4640.51
460.964	4684.81
461.337	4753.96
461.71	4837.8
462.083	4918.92
462.456	4906.27
462.829	4980.62
463.201	5049.54
463.574	5079.82
463.947	5147.62
464.32	5207.73
464.692	5222.65
465.065	5271.46
465.438	5410.89
465.81	5491.79
466.183	5474.16
466.555	5603.43
466.928	5614.5
467.3	5614.05
467.672	5759.35
468.045	5838.67
468.417	5896.75
468.789	6000.25
469.161	6029.63
469.534	6092.68
469.906	6222.84
470.278	6276.4
470.65	6330.64
471.022	6463.52
471.394	6575.6
471.766	6582.84
472.138	6711.87
472.51	6845.43
472.882	6948.48
473.253	6996.84
473.625	7115.93
473.997	7270.95
474.369	7350.5
474.74	7379.2
475.112	7558.4
475.484	7663.26
475.855	7714.56
476.227	7818.51
476.598	8019.86
476.97	8106.86
477.341	8297.37
477.713	8443.35
478.084	8458.27
478.455	8658.71
478.827	8752.04
479.198	8973.51
479.569	9029.32
479.94	9139.15
480.311	9398.81
480.682	9568.07
481.053	9733.94
481.424	9891.45
481.795	10004.89
482.166	10126.47
482.537	10254.38
482.908	10472.22
483.279	10637.42
483.65	10794.7
484.021	11015.26
484.391	11165.54
484.762	11207.35
485.133	11377.74
485.503	11523.5
485.874	11746.99
486.244	11857.95
486.615	12212.29
486.985	12313.76
487.356	12429.01
487.726	12556.01
488.097	12838.72
488.467	12974.08
488.837	13176.56
489.207	13261.08
489.578	13534.07
489.948	13686.6
490.318	13784.68
490.688	13899.25
491.058	14114.39
491.428	14226.7
491.798	14340.15
492.168	14615.39
492.538	14635.28
492.908	14876.4
493.278	15060.8
493.648	15117.75
494.017	15294.92
494.387	15467.8
494.757	15583.73
495.126	15705.76
495.496	15709.6
495.866	15909.37
496.235	15983.04
496.605	16179.87
496.974	16204.73
497.344	16322.01
497.713	16452.86
498.082	16559.75
498.452	16721.1
498.821	16726.3
499.19	16825.05
499.559	16940.08
499.928	17128.77
500.298	17095.78
500.667	17303.01
501.036	17191.6
501.405	17432.04
501.774	17450.57
502.143	17570.57
502.512	17642.21
502.88	17811.47
503.249	17837.23
503.618	17871.58
503.987	17870.9
504.356	18141.18
504.724	18208.52
505.093	18224.79
505.462	18290.1
505.83	18373.71
506.199	18494.16
506.567	18740.26
506.936	18688.28
507.304	18905.22
507.672	18910.42
508.041	18946.13
508.409	19078.33
508.777	19216.18
509.145	19399.67
509.514	19406.9
509.882	19499.33
510.25	19528.26
510.618	19660.91
510.986	19784.07
511.354	19834.92
511.722	20017.74
512.09	20193.1
512.458	20077.85
512.826	20227.45
513.193	20294.11
513.561	20404.17
513.929	20418.18
514.297	20710.37
514.664	20836.47
515.032	20944.04
515.4	20978.62
515.767	21003.02
516.135	21200.08
516.502	21036.69
516.869	21348.77
517.237	21501.09
517.604	21289.34
517.972	21697.69
518.339	21898.36
518.706	21854.3
519.073	21851.59
519.44	22064.69
519.808	22263.55
520.175	22245.7
520.542	22493.15
520.909	22667.38
521.276	22508.52
521.643	22895.63
522.009	23005.91
522.376	23056.07
522.743	23182.4
523.11	23447.25
523.477	23488.38
523.843	23709.84
524.21	23959.33
524.577	24003.62
524.943	24097.4
525.31	24204.97
525.676	24444.51
526.043	24618.52
526.409	24510.95
526.776	24897.38
527.142	24851.51
527.508	24929.47
527.874	25184.15
528.241	25271.16
528.607	25379.63
528.973	25551.15
529.339	25532.62
529.705	25808.77
530.071	25918.37
530.437	25895.55
530.803	26157.24
531.169	26157.69
531.535	26189.78
531.901	26163.34
532.267	26380.28
532.632	26442.65
532.998	26463.67
533.364	26646.26
533.73	26661.63
534.095	26779.37
534.461	26803.32
534.826	26812.36
535.192	26823.89
535.557	27179.36
535.923	27022.3
536.288	27134.39
536.653	27120.15
537.019	27102.97
537.384	27161.96
537.749	27155.63
538.114	27219.81
538.479	27175.74
538.845	27198.34
539.21	27158.34
539.575	27147.27
539.94	27138.45
540.305	27409.63
540.67	27238.34
541.034	27337.77
541.399	27285.79
541.764	27462.06
542.129	27321.95
542.494	27396.98
542.858	27391.55
543.223	27316.08
543.587	27425.23
543.952	27435.39
544.316	27401.72
544.681	27188.4
545.045	27349.52
545.41	27437.43
545.774	27302.97
546.138	27426.36
546.503	27356.75
546.867	27416.86
547.231	27522.85
547.595	27374.61
547.959	27487.37
548.324	27346.13
548.688	27543.87
549.052	27422.06
549.416	27359.24
549.779	27274.72
550.143	27276.53
550.507	27503.87
550.871	27369.63
551.235	27341.61
551.599	27522.17
551.962	27481.27
552.326	27459.8
552.689	27416.19
553.053	27229.07
553.417	27421.61
553.78	27440.82
554.143	27475.39
554.507	27366.24
554.87	27399.92
555.234	27603.07
555.597	27344.1
555.96	27350.65
556.323	27431.1
556.686	27413.7
557.05	27561.94
557.413	27566.24
557.776	27396.53
558.139	27556.75
558.502	27531.89
558.865	27522.4
559.228	27611.89
559.59	27655.05
559.953	27714.48
560.316	27890.98
560.679	27858.43
561.041	27853.24
561.404	27871.09
561.767	28041.03
562.129	27890.3
562.492	28126.45
562.854	27970.97
563.217	27947.02
563.579	28025.89
563.941	28079.67
564.304	28080.8
564.666	28340.91
565.028	28230.85
565.39	28389.72
565.753	28503.16
566.115	28475.82
566.477	28528.02
566.839	28704.06
567.201	28871.97
567.563	28745.19
567.925	28923.94
568.287	28804.85
568.648	28821.8
569.01	28889.59
569.372	29244.39
569.734	29038.74
570.095	29265.63
570.457	29320.32
570.819	29278.28
571.18	29433.99
571.542	29424.95
571.903	29434.89
572.265	29630.36
572.626	29723.47
572.987	29649.57
573.349	29772.96
573.71	29877.14
574.071	29858.16
574.432	29942.67
574.794	30098.38
575.155	29986.74
575.516	30079.84
575.877	30158.94
576.238	30045.04
576.599	30292.27
576.96	30213.85
577.32	30272.83
577.681	30402.77
578.042	30521.64
578.403	30497.69
578.763	30438.03
579.124	30480.29
579.485	30544.47
579.845	30588.76
580.206	30623.56
580.566	30626.72
580.927	30504.92
581.287	30637.57
581.648	30609.77
582.008	30759.6
582.368	30765.93
582.728	30711.69
583.089	30831.46
583.449	30796.21
583.809	30588.53
584.169	30982.65
584.529	30752.6
584.889	30995.98
585.249	30799.15
585.609	30731.13
585.969	31031.46
586.329	30777.68
586.688	31004.34
587.048	30948.07
587.408	30918.69
587.768	30881.63
588.127	31022.42
588.487	30977.67
588.846	31337.66
589.206	30865.13
589.565	30972.93
589.925	31148.29
590.284	31118.24
590.643	31189.42
591.003	31211.34
591.362	31335.63
591.721	31188.06
592.08	31308.29
592.44	31472.35
592.799	31228.74
593.158	31237.1
593.517	31216.09
593.876	31398.23
594.235	31174.96
594.593	31449.75
594.952	31464.22
595.311	31379.02
595.67	31452.46
596.029	31484.1
596.387	31544.66
596.746	31683.64
597.104	31537.66
597.463	31546.02
597.822	31652.46
598.18	31522.29
598.538	31645.23
598.897	31734.04
599.255	31488.4
599.613	31843.64
599.972	31641.39
600.33	31809.06
600.688	31689.07
601.046	31855.17
601.404	31959.34
601.762	31875.73
602.12	32032.34
602.478	31927.71
602.836	32044.76
603.194	31791.44
603.552	31962.96
603.91	31797.54
604.268	31993.01
604.625	32076.63
604.983	32127.7
605.341	31967.48
605.698	32132.9
606.056	32368.82
606.413	32201.82
606.771	32396.62
607.128	32242.27
607.485	32254.93
607.843	32315.04
608.2	32583.73
608.557	32593.9
608.914	32464.19
609.272	32637.97
609.629	32793.22
609.986	32889.49
610.343	32877.74
610.7	33043.16
611.057	32856.49
611.414	32936.94
611.771	33073.89
612.127	33063.95
612.484	33230.95
612.841	33215.58
613.198	33054.23
613.554	33124.28
613.911	33305.97
614.267	33425.29
614.624	33338.52
614.98	33463.94
615.337	33587.1
615.693	33548.23
616.05	33686.98
616.406	33714.78
616.762	33657.38
617.118	33649.69
617.475	33710.26
617.831	33873.87
618.187	33913.87
618.543	33893.76
618.899	34234.54
619.255	34040.19
619.611	34150.02
619.967	34216.46
620.323	34319.28
620.678	34183.24
621.034	34209.45
621.39	34223.24
621.746	34198.38
622.101	34536.9
622.457	34159.51
622.812	34487.86
623.168	34458.71
623.523	34481.31
623.879	34612.61
624.234	34379.39
624.589	34402.44
624.945	34557.47
625.3	34620.06
625.655	34521.54
626.01	34582.33
626.365	34526.51
626.72	34402.67
627.075	34441.31
627.43	34594.3
627.785	34583
628.14	34560.18
628.495	34638.37
628.85	34659.61
629.205	34451.26
629.559	34640.18
629.914	34542.55
630.269	34475.89
630.623	34348.21
630.978	34329
631.332	34582.1
631.687	34423.46
632.041	34508.2
632.396	34413.74
632.75	34249.9
633.104	34376.68
633.459	34147.53
633.813	34268.44
634.167	34128.78
634.521	34113.86
634.875	34110.25
635.229	34109.8
635.583	33905.96
635.937	33984.15
636.291	33995.22
636.645	33963.13
636.999	33770.82
637.352	33885.17
637.706	33667.32
638.06	33837.03
638.413	33855.79
638.767	33599.3
639.121	33725.17
639.474	33694.21
639.828	33494.9
640.181	33750.71
640.534	33633.88
640.888	33481.56
641.241	33354.56
641.594	33443.6
641.947	33541.9
642.301	33376.93
642.654	33435.91
643.007	33366.76
643.36	33463.94
643.713	33439.08
644.066	33479.98
644.419	33277.95
644.771	32978.07
645.124	32769.94
645.477	32734.69
645.83	32639.78
646.182	32461.48
646.535	32438.2
646.888	32575.15
647.24	32382.16
647.593	32619.66
647.945	32496.5
648.298	32480.69
648.65	32308.03
649.002	32229.84
649.355	32324.53
649.707	32116.85
650.059	32319.79
650.411	32637.29
650.763	32757.29
651.115	33188.92
651.467	33192.76
651.819	33228.69
652.171	33095.81
652.523	33068.47
652.875	33142.59
653.227	32917.51
653.578	33236.37
653.93	33209.71
654.282	32935.59
654.633	33148.92
654.985	33116.15
655.337	33041.12
655.688	33099.2
656.039	33243.83
656.391	32995.93
656.742	33123.61
657.094	33133.78
657.445	33129.03
657.796	33173.32
658.147	33016.04
658.498	33199.08
658.849	33243.38
659.2	33047.68
659.551	33096.49
659.902	33402.92
660.253	33214.45
660.604	33296.94
660.955	33198.86
661.306	33426.65
661.656	33276.6
662.007	33385.75
662.358	33402.24
662.708	33488.79
663.059	33313.21
663.409	33276.82
663.76	33415.8
664.11	33382.13
664.461	33510.49
664.811	33594.78
665.161	33538.74
665.511	33510.49
665.862	33422.58
666.212	33618.06
666.562	33641.11
666.912	33510.94
667.262	33421
667.612	33552.07
667.962	33594.55
668.312	33416.71
668.662	33547.32
669.011	33719.52
669.361	33508.68
669.711	33699.64
670.06	33562.92
670.41	33416.71
670.76	33558.17
671.109	33533.77
671.459	33447.44
671.808	33455.58
672.157	33623.93
672.507	33435.46
672.856	33470.49
673.205	33392.53
673.554	33556.59
673.904	33367.89
674.253	33655.57
674.602	33469.13
674.951	33043.16
675.3	32813.56
675.649	33269.14
675.998	33434.78
676.346	33205.19
676.695	33412.64
677.044	33192.53
677.393	33297.61
677.741	33304.62
678.09	33207.9
678.438	33076.15
678.787	33169.48
679.135	33086.55
679.484	32872.77
679.832	33124.74
680.181	32899.66
680.529	32899.88
680.877	32878.19
681.225	32826.67
681.573	32924.29
681.922	32794.58
682.27	32664.18
682.618	32789.38
682.966	32668.48
683.314	32605.88
683.661	32525.88
684.009	32245.21
684.357	32313.91
684.705	32184.87
685.053	32249.73
685.4	32025.78
685.748	31890.64
686.095	32016.29
686.443	31759.12
686.79	31696.53
687.138	31809.74
687.485	31735.17
687.832	31602.06
688.18	31573.36
688.527	31419.92
688.874	31374.27
689.221	31274.16
689.568	31088.86
689.915	30970.67
690.262	31071.01
690.609	30941.06
690.956	30739.94
691.303	30625.14
691.65	30617.68
691.997	30427.18
692.344	30248.43
692.69	30222.44
693.037	30108.77
693.383	29981.99
693.73	30139.5
694.077	29869
694.423	29933.86
694.769	29812.06
695.116	29591.5
695.462	29560.31
695.808	29305.85
696.155	29388.34
696.501	29038.29
696.847	29108.34
697.193	28801.23
697.539	28877.39
697.885	28685.98
698.231	28543.84
698.577	28571.64
698.923	28408.93
699.269	28108.37
699.614	28074.25
699.96	28003.06
700.306	27934.82
700.651	27762.17
700.997	27811.88
701.342	27533.92
701.688	27504.55
702.033	27371.22
702.379	27369.86
702.724	27185.68
703.069	27312.91
703.415	26963.77
703.76	26887.16
704.105	26901.85
704.45	26745.02
704.795	26646.49
705.14	26511.35
705.485	26462.76
705.83	26315.42
706.175	26357.46
706.52	26230.23
706.865	26164.92
707.209	26043.34
707.554	25994.75
707.899	26067.07
708.243	25784.36
708.588	25739.39
708.932	25604.26
709.277	25544.6
709.621	25497.14
709.966	25315.9
710.31	25321.1
710.654	25227.77
710.998	25251.5
711.342	25286.75
711.687	25120.88
712.031	25229.12
712.375	25129.92
712.719	25094.44
713.063	24951.39
713.407	25038.62
713.75	24799.98
714.094	24886.76
714.438	24724.28
714.782	24721.57
715.125	24732.41
715.469	24804.5
715.812	24508.69
716.156	24628.91
716.499	24561.12
716.843	24649.48
717.186	24430.5
717.53	24433.67
717.873	24570.84
718.216	24562.48
718.559	24430.73
718.902	24287.68
719.246	24270.73
719.589	24263.05
719.932	24141.7
720.275	24223.28
720.617	24237.29
720.96	24173.79
721.303	24209.26
721.646	24290.39
721.989	24167.68
722.331	24211.07
722.674	24132.43
723.016	24184.41
723.359	24049.04
723.701	24124.52
724.044	24106.22
724.386	23907.35
724.729	24142.15
725.071	24127.23
725.413	24102.37
725.755	23977.63
726.097	24015.82
726.439	24065.09
726.782	23941.7
727.124	24116.84
727.465	24051.75
727.807	23952.77
728.149	24101.47
728.491	23935.15
728.833	24080.23
729.175	24004.52
729.516	24011.76
729.858	24125.42
730.199	24070.51
730.541	24098.76
730.882	24126.55
731.224	24243.16
731.565	24249.72
731.906	24251.3
732.248	24209.49
732.589	24152.77
732.93	24069.16
733.271	24185.54
733.612	24214.69
733.953	24366.55
734.294	24403.16
734.635	24370.62
734.976	24497.62
735.317	24359.32
735.658	24471.18
735.999	24448.13
736.339	24555.24
736.68	24600.21
737.021	24627.33
737.361	24654.22
737.702	24815.58
738.042	24790.94
738.383	24883.6
738.723	25020.77
739.063	24865.74
739.404	25091.73
739.744	25153.87
740.084	25037.27
740.424	25315
740.764	25246.75
741.104	25477.71
741.444	25415.79
741.784	25325.62
742.124	25597.48
742.464	25691.03
742.804	25671.15
743.143	25723.8
743.483	25911.82
743.823	25878.83
744.162	25966.05
744.502	26192.04
744.841	26110.91
745.181	26423.9
745.52	26457.12
745.86	26660.73
746.199	26609.43
746.538	26832.47
746.877	27100.94
747.216	27127.15
747.556	27249.64
747.895	27324.89
748.234	27468.39
748.573	27553.81
748.911	27672
749.25	27845.78
749.589	27827.02
749.928	28239.67
750.267	28458.19
750.605	28468.59
750.944	28650.73
751.283	28805.3
751.621	29076.26
751.96	29068.57
752.298	29203.94
752.636	29448.67
752.975	29570.48
753.313	29677.14
753.651	29949.68
753.989	29994.88
754.327	30212.04
754.666	30263.34
755.004	30739.49
755.342	30789.43
755.679	31051.34
756.017	31058.58
756.355	31285.01
756.693	31496.53
757.031	31610.65
757.368	31695.4
757.706	31922.28
758.044	32074.82
758.381	32123.18
758.719	32337.19
759.056	32525.43
759.394	32561.59
759.731	32530.18
760.068	32727.23
760.405	32996.83
760.743	33074.79
761.08	33131.97
761.417	33253.32
761.754	33401.34
762.091	33591.39
762.428	33471.85
762.765	33757.49
763.102	33842.91
763.438	33831.84
763.775	33946.41
764.112	34079.97
764.449	34200.41
764.785	34313.18
765.122	34298.26
765.458	34216.91
765.795	34320.19
766.131	34453.29
766.467	34404.93
766.804	34401.76
767.14	34438.83
767.476	34481.08
767.812	34562.21
768.148	34690.57
768.485	34557.02
768.821	34477.47
769.157	34592.72
769.492	34629.33
769.828	34666.39
770.164	34606.05
770.5	34451.26
770.836	34551.59
771.171	34441.54
771.507	34532.61
771.842	34378.49
772.178	34554.3
772.513	34453.29
772.849	34368.09
773.184	34334.65
773.519	34417.13
773.855	34285.61
774.19	34255.1
774.525	34166.29
774.86	34347.76
775.195	34180.75
775.53	34008.1
775.865	33959.29
776.2	33827.54
776.535	33640.88
776.87	33748.22
777.205	33570.6
777.539	33548.68
777.874	33511.84
778.209	33412.86
778.543	33421.9
778.878	33193.21
779.212	33200.89
779.547	33083.61
779.881	33091.74
780.215	32957.28
780.55	33013.78
780.884	32892.65
781.218	32818.76
781.552	32858.75
781.886	32753.45
782.22	32449.5
782.554	32434.13
782.888	32229.17
783.222	32336.96
783.556	32124.54
783.889	31990.75
784.223	31765.9
784.557	31781.04
784.89	31846.8
785.224	31736.52
785.557	31543.99
785.891	31556.87
786.224	31464.89
786.558	31447.72
786.891	31265.8
787.224	31071.46
787.557	31040.05
787.891	30925.02
788.224	30824.23
788.557	30906.49
788.89	30655.42
789.223	30676.21
789.556	30483.22
789.888	30425.6
790.221	30332.72
790.554	30279.39
790.887	30207.98
791.219	30083.01
791.552	30061.31
791.884	29806.63
792.217	29788.33
792.549	29765.95
792.882	29596.24
793.214	29656.35
793.546	29549.01
793.879	29351.05
794.211	29230.38
794.543	29456.13
794.875	29159.42
795.207	29135.46
795.539	29008.91
795.871	29035.8
796.203	28995.58
796.535	28687.79
796.867	28717.17
797.198	28571.64
797.53	28616.15
797.862	28248.25
798.193	28497.97
798.525	28321.25
798.856	28428.36
799.188	27950.86
799.519	27919.22
799.85	27908.15
800.182	27817.31
800.513	27969.84
800.844	27587.48
801.175	27741.83
801.506	27672.68
801.837	27546.58
802.168	27436.07
802.499	27555.84
802.83	27316.53
803.161	27170.99
803.491	27155.63
803.822	27156.53
804.153	27092.58
804.483	26837.67
804.814	26771.46
805.145	26866.37
805.475	26777.56
805.805	26700.05
806.136	26738.92
806.466	26554.51
806.796	26592.48
807.126	26389.77
807.457	26360.62
807.787	26400.17
808.117	26258.02
808.447	26101.42
808.777	26217.35
809.107	26020.74
809.436	25920.86
809.766	25942.1
810.096	26006.96
810.426	25836.34
810.755	25785.27
811.085	25713.18
811.414	25788.88
811.744	25583.69
812.073	25614.65
812.403	25539.85
812.732	25341.66
813.061	25567.65
813.39	25259.41
813.719	25364.49
814.049	25519.29
814.378	25330.59
814.707	25182.12
815.036	25190.93
815.365	25022.35
815.693	24982.13
816.022	24912.52
816.351	24792.07
816.68	24621.01
817.008	24894.22
817.337	24703.71
817.665	24631.17
817.994	24576.94
818.322	24629.37
818.651	24557.5
818.979	24443.16
819.307	24443.16
819.636	24494.68
819.964	24352.54
820.292	24374.01
820.62	24376.49
820.948	24411.29
821.276	24378.98
821.604	24441.12
821.932	24532.42
822.259	24371.52
822.587	24333.33
822.915	24349.83
823.243	24464.85
823.57	24325.87
823.898	24521.35
824.225	24319.09
824.553	24362.93
824.88	24326.32
825.207	24521.35
825.535	24309.6
825.862	24422.82
826.189	24396.15
826.516	24537.62
826.843	24527.22
827.17	24550.5
827.497	24579.2
827.824	24531.97
828.151	24606.32
828.478	24453.1
828.805	24655.58
829.131	24575.13
829.458	24585.3
829.785	24426.66
830.111	24444.51
830.438	24639.54
830.764	24541.46
831.09	24572.19
831.417	24485.87
831.743	24609.93
832.069	24476.38
832.395	24379.66
832.722	24524.96
833.048	24443.83
833.374	24549.82
833.7	24362.03
834.026	24442.7
834.351	24311.86
834.677	24438.19
835.003	24352.54
835.329	24343.5
835.654	24328.36
835.98	24184.41
836.306	24440.44
836.631	24264.4
836.956	24305.08
837.282	24321.58
837.607	24132.66
837.932	24148.93
838.258	24156.38
838.583	24089.27
838.908	24042.94
839.233	24102.83
839.558	24042.72
839.883	23945.54
840.208	23806.79
840.533	23930.85
840.858	23977.86
841.182	23957.52
841.507	24001.36
841.832	23798.88
842.156	23794.81
842.481	23687.92
842.805	23597.08
843.13	23529.73
843.454	23601.82
843.778	23593.69
844.103	23512.56
844.427	23362.06
844.751	23341.49
845.075	23445.89
845.399	23249.29
845.723	23218.33
846.047	23217.65
846.371	23021.05
846.695	22991.44
847.019	22858.34
847.343	22691.34
847.666	22654.96
847.99	22516.2
848.313	22424.45
848.637	22409.76
848.96	22316.66
849.284	22379.93
849.607	22194.4
849.931	22130.68
850.254	21994.63
850.577	21766.39
850.9	21640.29
851.223	21761.65
851.546	21539.5
851.869	21484.14
852.192	21640.29
852.515	21370.47
852.838	21175.22
853.161	21290.25
853.483	21119.85
853.806	21150.59
854.129	20960.31
854.451	20903.59
854.774	20825.85
855.096	20771.84
855.419	20725.97
855.741	20640.09
856.063	20544.73
856.385	20551.51
856.708	20530.72
857.03	20319.65
857.352	20380.21
857.674	20329.37
857.996	20124.17
858.318	20135.25
858.64	20125.53
858.961	20016.83
859.283	20104.51
859.605	20045.98
859.926	19952.65
860.248	19880.79
860.57	19814.35
860.891	19801.24
861.212	19691.19
861.534	19727.12
861.855	19545.88
862.176	19688.03
862.498	19603.51
862.819	19583.62
863.14	19473.57
863.461	19521.7
863.782	19375.72
864.103	19422.72
864.424	19354.48
864.745	19295.04
865.065	19255.72
865.386	19181.37
865.707	19298.89
866.027	19187.93
866.348	19163.3
866.668	19151.09
866.989	19070.19
867.309	18971.21
867.63	18952
867.95	19073.35
868.27	18784.32
868.59	18965.79
868.91	18741.16
869.23	18899.8
869.55	18794.27
869.87	18771.67
870.19	18731.89
870.51	18725.79
870.83	18733.02
871.15	18501.84
871.469	18539.58
871.789	18713.82
872.109	18517.21
872.428	18470.88
872.748	18495.52
873.067	18404.9
873.386	18455.52
873.706	18498.91
874.025	18349.98
874.344	18335.29
874.663	18367.16
874.982	18221.4
875.301	18356.76
875.62	18197.22
875.939	18176.2
876.258	18184.56
876.577	18097.33
876.896	18248.29
877.214	18099.59
877.533	18149.76
877.852	18038.13
878.17	17967.39
878.489	17965.59
878.807	17925.14
879.125	17939.37
879.444	17938.47
879.762	17847.62
880.08	17885.36
880.398	17780.28
880.716	17863.22
881.034	17726.72
881.352	17740.06
881.67	17684.24
881.988	17710.9
882.306	17675.65
882.624	17615.31
882.941	17432.72
883.259	17406.96
883.577	17430.91
883.894	17408.54
884.212	17392.49
884.529	17326.06
884.846	17193.18
885.164	17211.48
885.481	17144.14
885.798	17228.88
886.115	17094.65
886.432	17141.2
886.75	17028.89
887.067	17000.41
887.383	16934.65
887.7	16973.3
888.017	16864.15
888.334	16829.35
888.651	16775.11
888.967	16699.63
889.284	16673.19
889.6	16587.32
889.917	16554.32
890.233	16493.31
890.55	16481.33
890.866	16527.66
891.182	16349.81
891.498	16300.09
891.815	16277.72
892.131	16161.57
892.447	16181.91
892.763	16176.26
893.079	16072.53
893.395	16038.18
893.71	16037.28
894.026	15949.14
894.342	15931.74
894.657	15853.1
894.973	15781.01
895.289	15711.63
895.604	15769.26
895.92	15608.13
896.235	15545.54
896.55	15564.97
896.865	15561.36
897.181	15443.62
897.496	15501.7
897.811	15341.48
898.126	15190.29
898.441	15261.03
898.756	15251.08
899.071	15168.15
899.386	15206.56
899.7	15026.68
900.015	14953.69
900.33	14879.11
900.644	14876.63
900.959	14898.55
901.273	14788.95
901.588	14690.87
901.902	14666.69
902.216	14631.44
902.531	14633.92
902.845	14527.26
903.159	14428.28
903.473	14433.93
903.787	14346.93
904.101	14212.24
904.415	14259.92
904.729	14200.04
905.042	14114.61
905.356	14032.36
905.67	14020.83
905.984	13998.69
906.297	13998.91
906.611	13847.96
906.924	13824.45
907.237	13711.46
907.551	13805.7
907.864	13666.49
908.177	13667.62
908.491	13634.85
908.804	13461.3
909.117	13444.8
909.43	13369.1
909.743	13330
910.056	13298.82
910.368	13224.24
910.681	13157.58
910.994	13100.18
911.307	13088.88
911.619	12977.7
911.932	12969.56
912.244	12894.31
912.557	12869.45
912.869	12712.17
913.181	12760.3
913.494	12705.84
913.806	12563.02
914.118	12624.26
914.43	12522.34
914.742	12474.88
915.054	12447.54
915.366	12386.07
915.678	12352.18
915.99	12319.18
916.302	12174.55
916.613	12163.48
916.925	12172.74
917.236	12146.3
917.548	11998.51
917.859	11975.46
918.171	11932.98
918.482	11811.62
918.794	11785.41
919.105	11734.11
919.416	11644.62
919.727	11718.29
920.038	11639.65
920.349	11595.58
920.66	11499.32
920.971	11428.36
921.282	11527.34
921.593	11319.43
921.903	11323.05
922.214	11348.59
922.525	11193.11
922.835	11232.2
923.146	11063.17
923.456	11108.14
923.767	11116.05
924.077	11086.9
924.387	10958.31
924.697	10926.9
925.008	10890.97
925.318	10807.58
925.628	10830.18
925.938	10745.89
926.248	10682.84
926.558	10596.97
926.867	10598.55
927.177	10544.09
927.487	10464.09
927.796	10463.64
928.106	10537.53
928.416	10351.78
928.725	10356.75
929.034	10358.78
929.344	10316.3
929.653	10262.74
929.962	10170.76
930.271	10062.97
930.581	10095.51
930.89	9978.68
931.199	9978.23
931.508	9971.45
931.817	9931.22
932.125	9892.35
932.434	9816.2
932.743	9662.53
933.051	9706.37
933.36	9724
933.669	9564.9
933.977	9565.36
934.286	9568.97
934.594	9483.78
934.902	9492.36
935.21	9453.04
935.519	9362.65
935.827	9308.41
936.135	9352.71
936.443	9187.06
936.751	9214.18
937.059	9250.56
937.367	9092.15
937.674	9149.55
937.982	9133.95
938.29	9054.41
938.597	9014.86
938.905	8973.28
939.213	8918.37
939.52	8843.79
939.827	8917.92
940.135	8878.37
940.442	8759.05
940.749	8709.79
941.056	8676.34
941.363	8748.43
941.67	8619.62
941.977	8554.99
942.284	8495.55
942.591	8538.04
942.898	8439.96
943.205	8504.37
943.511	8334.88
943.818	8383.92
944.125	8316.12
944.431	8321.09
944.738	8239.74
945.044	8219.18
945.35	8195.45
945.657	8108.44
945.963	8170.14
946.269	8064.6
946.575	8037.49
946.881	7955.68
947.187	7904.61
947.493	7908.68
947.799	7871.84
948.105	7814.67
948.41	7741.45
948.716	7806.98
949.022	7749.13
949.327	7718.85
949.633	7623.49
949.938	7594.56
950.244	7711.17
950.549	7512.53
950.854	7455.81
951.16	7520.44
951.465	7465.98
951.77	7405.64
952.075	7369.71
952.38	7319.31
952.685	7258.75
952.99	7324.74
953.294	7284.74
953.599	7247.9
953.904	7188.02
954.209	7121.13
954.513	7126.78
954.818	7115.7
955.122	7089.94
955.426	7083.84
955.731	7004.52
956.035	6989.15
956.339	7016.72
956.643	6940.34
956.948	6878.87
957.252	6866.44
957.556	6819.67
957.86	6775.37
958.163	6783.96
958.467	6765.43
958.771	6697.86
959.075	6703.28
959.378	6630.74
959.682	6657.64
959.985	6641.36
960.289	6574.25
960.592	6535.15
960.896	6485.66
961.199	6411.54
961.502	6462.16
961.805	6424.2
962.108	6395.72
962.411	6395.27
962.714	6291.77
963.017	6309.62
963.32	6302.16
963.623	6278.66
963.926	6269.4
964.228	6218.1
964.531	6144.43
964.833	6188.04
965.136	6116.86
965.438	6086.8
965.741	5960.25
966.043	5985.34
966.345	5972.68
966.648	6005.68
966.95	5909.86
967.252	5895.4
967.554	5895.17
967.856	5833.93
968.158	5824.66
968.46	5786.92
968.761	5791.9
969.063	5812.69
969.365	5738.11
969.666	5714.38
969.968	5642.3
970.269	5640.49
970.571	5601.62
970.872	5622.86
971.174	5546.03
971.475	5567.72
971.776	5517.55
972.077	5505.12
972.378	5511.68
972.679	5481.4
972.98	5441.4
973.281	5384
973.582	5396.43
973.883	5316.43
974.183	5358.23
974.484	5275.3
974.785	5288.18
975.085	5271.01
975.386	5207.05
975.686	5200.05
975.986	5156.88
976.287	5173.83
976.587	5110.33
976.887	5088.19
977.187	5093.83
977.487	5103.1
977.787	5061.52
978.087	5009.09
978.387	5009.54
978.687	4963.67
978.987	5010.9
979.286	4901.52
979.586	4904.69
979.885	4899.49
980.185	4857.68
980.484	4810.45
980.784	4784.92
981.083	4821.98
981.382	4777.46
981.682	4741.08
981.981	4721.64
982.28	4720.74
982.579	4713.28
982.878	4686.61
983.177	4673.51
983.475	4614.98
983.774	4610.01
984.073	4538.14
984.372	4575.66
984.67	4518.93
984.969	4556.22
985.267	4534.75
985.566	4505.6
985.864	4450.46
986.162	4469.22
986.461	4469.67
986.759	4426.51
987.057	4385.15
987.355	4321.43
987.653	4299.96
987.951	4298.6
988.249	4342.44
988.547	4252.05
988.844	4223.35
989.142	4195.33
989.44	4188.1
989.737	4216.57
990.035	4175.44
990.332	4098.61
990.63	4110.81
990.927	4126.85
991.224	4112.62
991.521	4087.08
991.819	4008.67
992.116	4028.1
992.413	4024.71
992.71	4021.09
993.006	3988.33
993.303	3935.22
993.6	3959.18
993.897	3944.71
994.193	3886.41
994.49	3863.58
994.787	3819.74
995.083	3816.81
995.379	3825.62
995.676	3775.9
995.972	3742.91
996.268	3739.97
996.565	3766.19
996.861	3715.11
997.157	3665.4
997.453	3681.44
997.749	3653.65
998.044	3609.13
998.34	3620.43
998.636	3612.97
998.932	3570.03
999.227	3531.39
999.523	3535.68
999.818	3493.2
1000.114	3487.78
1000.409	3501.56
1000.704	3446.65
1001	3406.2
1001.295	3426.99
1001.59	3423.6
1001.885	3372.52
1002.18	3337.72
1002.475	3356.03
1002.77	3310.38
1003.065	3257.95
1003.359	3265.63
1003.654	3241.45
1003.949	3220.44
1004.243	3232.42
1004.538	3195.58
1004.832	3197.16
1005.127	3188.57
1005.421	3170.27
1005.715	3093.66
1006.009	3101.35
1006.304	3093.21
1006.598	3085.75
1006.892	3060.89
1007.186	3054.79
1007.48	3012.99
1007.773	2996.04
1008.067	3000.56
1008.361	2967.34
1008.655	2964.17
1008.948	2918.98
1009.242	2910.84
1009.535	2906.77
1009.829	2923.72
1010.122	2883.27
1010.415	2872.65
1010.708	2860.67
1011.001	2801.92
1011.295	2810.96
1011.588	2781.35
1011.881	2756.5
1012.173	2756.04
1012.466	2739.77
1012.759	2709.26
1013.052	2701.58
1013.344	2664.07
1013.637	2644.41
1013.93	2627.23
1014.222	2623.84
1014.514	2610.96
1014.807	2611.87
1015.099	2584.52
1015.391	2561.92
1015.683	2526.44
1015.976	2525.54
1016.268	2516.28
1016.56	2460.91
1016.851	2470.63
1017.143	2451.64
1017.435	2463.17
1017.727	2430.4
1018.018	2447.12
1018.31	2396.96
1018.602	2360.8
1018.893	2372.78
1019.185	2316.05
1019.476	2343.62
1019.767	2302.95
1020.058	2288.94
1020.35	2271.31
1020.641	2248.49
1020.932	2231.31
1021.223	2217.3
1021.514	2202.84
1021.804	2178.21
1022.095	2175.27
1022.386	2207.13
1022.677	2170.3
1022.967	2141.82
1023.258	2114.48
1023.548	2076.74
1023.839	2101.15
1024.129	2089.85
1024.419	2083.97
1024.709	2049.85
1025	2017.98
1025.29	2032.22
1025.58	2012.56
1025.87	1956.06
1026.16	1944.09
1026.449	1937.99
1026.739	1969.62
1027.029	1936.4
1027.319	1910.64
1027.608	1909.74
1027.898	1888.72
1028.187	1860.93
1028.477	1856.18
1028.766	1883.07
1029.055	1846.01
1029.344	1843.07
1029.634	1773.02
1029.923	1816.86
1030.212	1761.72
1030.501	1762.85
1030.79	1780.7
1031.078	1742.06
1031.367	1728.73
1031.656	1730.31
1031.945	1712.68
1032.233	1672.68
1032.522	1674.94
1032.81	1681.27
1033.099	1645.56
1033.387	1627.49
1033.675	1620.48
1033.963	1616.86
1034.251	1605.11
1034.54	1609.41
1034.828	1593.81
1035.116	1591.1
1035.403	1568.28
1035.691	1537.54
1035.979	1529.63
1036.267	1519.24
1036.554	1524.44
1036.842	1534.61
1037.129	1525.34
1037.417	1493.93
1037.704	1489.41
1037.992	1474.04
1038.279	1455.29
1038.566	1431.33
1038.853	1431.33
1039.14	1431.33
