Data from 3278_FLMS001491_007.txt Node
Date: Thu Apr 19 15:16:19 BST 2018
User: hsy
Spectrometer: FLMS00149
Trigger mode: 0
Integration Time (sec): 1.000000E-2
Scans to average: 10
Electric dark correction enabled: true
Nonlinearity correction enabled: false
Boxcar width: 0
XAxis mode: Wavelengths
Number of Pixels in Spectrum: 2048
>>>>>Begin Spectral Data<<<<<
341.393	-4.41
341.776	-4.41
342.16	-4.41
342.543	-51.41
342.927	-78.08
343.31	-60
343.693	-71.07
344.077	-65.65
344.46	-64.74
344.843	-46.44
345.226	-57.06
345.61	-22.03
345.993	-3.73
346.376	-20
346.759	11.41
347.142	23.16
347.525	44.86
347.908	67.46
348.291	59.77
348.674	90.73
349.057	113.33
349.44	142.26
349.823	136.83
350.206	186.77
350.588	234.46
350.971	245.76
351.354	280.11
351.737	271.74
352.119	307
352.502	320.1
352.884	324.62
353.267	318.3
353.65	340.22
354.032	326.88
354.414	368.01
354.797	348.8
355.179	363.72
355.562	371.18
355.944	387.9
356.326	365.08
356.709	390.39
357.091	383.38
357.473	385.64
357.855	387.9
358.238	397.62
358.62	376.6
359.002	405.3
359.384	389.48
359.766	400.1
360.148	391.52
360.53	395.13
360.912	399.65
361.294	406.2
361.676	413.44
362.057	395.13
362.439	397.62
362.821	369.59
363.203	411.18
363.584	355.36
363.966	388.58
364.348	376.15
364.729	371.85
365.111	391.52
365.493	383.15
365.874	393.32
366.256	392.87
366.637	379.76
367.019	370.05
367.4	380.67
367.781	400.33
368.163	384.51
368.544	377.05
368.925	375.24
369.306	382.25
369.688	380.67
370.069	392.42
370.45	390.39
370.831	389.03
371.212	355.13
371.593	388.8
371.974	377.5
372.355	373.66
372.736	381.57
373.117	389.71
373.498	381.12
373.879	380.67
374.26	385.64
374.641	385.41
375.021	398.75
375.402	387
375.783	393.55
376.163	399.2
376.544	429.71
376.925	385.41
377.305	418.63
377.686	405.3
378.066	409.82
378.447	417.5
378.827	417.96
379.208	417.73
379.588	422.7
379.968	424.51
380.349	410.95
380.729	428.8
381.109	455.92
381.489	404.85
381.87	449.37
382.25	436.94
382.63	441.91
383.01	462.93
383.39	445.98
383.77	434.68
384.15	437.84
384.53	450.95
384.91	450.72
385.29	478.52
385.67	458.18
386.049	467.67
386.429	479.87
386.809	464.28
387.189	482.59
387.568	483.72
387.948	468.8
388.328	489.59
388.707	477.61
389.087	479.2
389.466	484.62
389.846	476.03
390.225	484.17
390.605	504.28
390.984	498.86
391.363	533.21
391.743	511.06
392.122	537.27
392.501	531.62
392.881	548.57
393.26	554.67
393.639	521.91
394.018	543.6
394.397	548.35
394.776	544.51
395.155	567.33
395.534	577.5
395.913	553.32
396.292	584.28
396.671	579.08
397.05	573.66
397.429	584.28
397.808	578.4
398.186	582.24
398.565	592.87
398.944	584.96
399.323	604.84
399.701	598.52
400.08	600.55
400.458	613.66
400.837	632.86
401.215	621.34
401.594	612.98
401.972	634.22
402.351	627.67
402.729	644.84
403.107	649.36
403.486	636.48
403.864	624.73
404.242	659.98
404.62	661.34
404.999	678.97
405.377	690.94
405.755	663.37
406.133	692.07
406.511	704.95
406.889	720.32
407.267	730.94
407.645	736.59
408.023	728.68
408.401	706.99
408.779	769.36
409.156	750.15
409.534	762.8
409.912	763.48
410.29	782.69
410.667	803.93
411.045	793.76
411.422	801
411.8	812.3
412.178	831.28
412.555	831.73
412.933	859.98
413.31	856.36
413.687	868.34
414.065	862.01
414.442	865.85
414.819	862.69
415.197	885.74
415.574	884.38
415.951	919.64
416.328	925.74
416.705	945.4
417.082	925.74
417.46	946.08
417.837	948.79
418.214	958.96
418.591	964.83
418.967	971.61
419.344	952.63
419.721	990.82
420.098	998.96
420.475	999.63
420.852	1032.18
421.228	1036.02
421.605	1042.35
421.982	1029.92
422.358	1032.4
422.735	1056.13
423.111	1071.72
423.488	1101.55
423.864	1068.33
424.241	1084.15
424.617	1108.78
424.994	1129.35
425.37	1140.42
425.746	1116.69
426.123	1159.4
426.499	1165.73
426.875	1173.42
427.251	1176.58
427.627	1199.86
428.003	1217.71
428.379	1224.94
428.756	1240.53
429.132	1271.04
429.507	1229.23
429.883	1275.56
430.259	1300.19
430.635	1344.48
431.011	1324.37
431.387	1332.06
431.763	1383.81
432.138	1361.66
432.514	1400.75
432.89	1396.91
433.265	1398.27
433.641	1481.66
434.016	1459.51
434.392	1457.25
434.767	1488.21
435.143	1508.32
435.518	1550.13
435.894	1562.56
436.269	1535.21
436.644	1610.69
437.02	1579.96
437.395	1612.05
437.77	1605.49
438.145	1641.2
438.52	1662.89
438.895	1697.47
439.271	1683.01
439.646	1688.2
440.021	1702.89
440.395	1745.15
440.77	1738.15
441.145	1740.86
441.52	1749.45
441.895	1756.23
442.27	1796.68
442.645	1785.38
443.019	1783.57
443.394	1844.36
443.769	1801.65
444.143	1839.61
444.518	1856.34
444.892	1833.06
445.267	1881.65
445.641	1843
446.016	1920.51
446.39	1927.29
446.764	1909.67
447.139	1906.5
447.513	1940.4
447.887	1955.09
448.262	1963.23
448.636	1980.17
449.01	1994.64
449.384	1990.34
449.758	2007.74
450.132	2056.33
450.506	2042.55
450.88	2086.39
451.254	2113.05
451.628	2105.37
452.002	2145.82
452.376	2157.57
452.75	2210.22
453.123	2222.88
453.497	2248.42
453.871	2276.66
454.244	2320.5
454.618	2304.46
454.992	2353.5
455.365	2391.24
455.739	2430.11
456.112	2452.48
456.486	2450.67
456.859	2479.82
457.232	2542.87
457.606	2599.14
457.979	2615.41
458.352	2631
458.725	2659.03
459.099	2682.75
459.472	2692.02
459.845	2830.55
460.218	2805.91
460.591	2843.88
460.964	2870.32
461.337	2911.67
461.71	2913.26
462.083	2999.58
462.456	2994.61
462.829	3041.61
463.201	3038
463.574	3067.6
463.947	3148.73
464.32	3190.76
464.692	3247.03
465.065	3241.84
465.438	3258.56
465.81	3309.86
466.183	3335.39
466.555	3450.64
466.928	3488.38
467.3	3444.77
467.672	3479.12
468.045	3601.37
468.417	3582.39
468.789	3613.8
469.161	3692.45
469.534	3756.62
469.906	3797.08
470.278	3827.13
470.65	3870.75
471.022	3920.69
471.394	3980.8
471.766	4056.05
472.138	4068.93
472.51	4196.84
472.882	4207.23
473.253	4310.73
473.625	4342.82
473.997	4454.46
474.369	4470.28
474.74	4454.01
475.112	4618.07
475.484	4685.41
475.855	4788.46
476.227	4849.93
476.598	4922.47
476.97	5003.15
477.341	5111.84
477.713	5164.27
478.084	5233.42
478.455	5406.75
478.827	5418.28
479.198	5594.99
479.569	5566.75
479.94	5749.34
480.311	5836.12
480.682	5975.32
481.053	6088.09
481.424	6206.28
481.795	6316.56
482.166	6471.13
482.537	6485.59
482.908	6711.12
483.279	6770.33
483.65	6921.74
484.021	7091.68
484.391	7179.81
484.762	7276.76
485.133	7373.7
485.503	7528.5
485.874	7681.04
486.244	7860.7
486.615	8037.87
486.985	8173.23
487.356	8318.31
487.726	8394.69
488.097	8728.92
488.467	8760.11
488.837	8970.05
489.207	9090.5
489.578	9329.81
489.948	9394.89
490.318	9667.66
490.688	9703.13
491.058	9935.44
491.428	10152.39
491.798	10307.86
492.168	10585.37
492.538	10685.26
492.908	10958.92
493.278	11112.82
493.648	11207.5
494.017	11515.74
494.387	11635.97
494.757	11896.07
495.126	12011.77
495.496	12239.79
495.866	12412.89
496.235	12671.87
496.605	12856.72
496.974	13018.75
497.344	13183.27
497.713	13487.67
498.082	13665.97
498.452	13835
498.821	14072.74
499.19	14202.9
499.559	14488.32
499.928	14747.52
500.298	14869.55
500.667	15163.33
501.036	15233.16
501.405	15555.18
501.774	15623.66
502.143	15837.66
502.512	16175.51
502.88	16421.83
503.249	16519.45
503.618	16817.07
503.987	16986.78
504.356	17261.58
504.724	17504.06
505.093	17613.21
505.462	17887.1
505.83	18080.32
506.199	18346.52
506.567	18662.45
506.936	18668.55
507.304	18997.81
507.672	19239.83
508.041	19178.14
508.409	19561.41
508.777	19837.33
509.145	20071.45
509.514	20097.44
509.882	20381.05
510.25	20513.47
510.618	20910.3
510.986	20793.46
511.354	21090.63
511.722	21361.36
512.09	21665.76
512.458	21622.37
512.826	21876.37
513.193	21950.5
513.561	22097.84
513.929	22386.64
514.297	22526.53
514.664	22708.67
515.032	22786.41
515.4	22925.84
515.767	23116.34
516.135	23244.7
516.502	23185.27
516.869	23505.26
517.237	23670.9
517.604	23689.21
517.972	23964.45
518.339	24037.67
518.706	24199.7
519.073	24209.19
519.44	24325.12
519.808	24575.96
520.175	24622.52
520.542	24844.66
520.909	25026.35
521.276	25095.72
521.643	25314.48
522.009	25376.85
522.376	25429.95
522.743	25490.52
523.11	25816.38
523.477	25951.52
523.843	26009.6
524.21	26361.68
524.577	26500.89
524.943	26498.4
525.31	26634.67
525.676	26794.21
526.043	26984.94
526.409	27086.86
526.776	27271.71
527.142	27266.29
527.508	27339.73
527.874	27551.03
528.241	27591.7
528.607	27750.8
528.973	27857.46
529.339	27740.63
529.705	27963.67
530.071	28019.26
530.437	28176.55
530.803	28244.34
531.169	28374.51
531.535	28345.81
531.901	28332.02
532.267	28383.55
532.632	28565.69
532.998	28412.93
533.364	28496.31
533.73	28524.79
534.095	28668.29
534.461	28698.57
534.826	28733.82
535.192	28715.74
535.557	28882.97
535.923	28785.12
536.288	28913.93
536.653	28719.81
537.019	28835.29
537.384	28917.32
537.749	28698.79
538.114	28650.89
538.479	28674.61
538.845	28654.05
539.21	28606.59
539.575	28548.51
539.94	28540.15
540.305	28780.6
540.67	28632.13
541.034	28513.04
541.399	28663.31
541.764	28525.01
542.129	28506.71
542.494	28530.89
542.858	28487.5
543.223	28351.23
543.587	28466.03
543.952	28340.61
544.316	28397.11
544.681	28245.47
545.045	28342.64
545.41	28439.59
545.774	28272.36
546.138	28229.65
546.503	28255.87
546.867	28288.41
547.231	28394.62
547.595	28240.05
547.959	28203.89
548.324	28066.95
548.688	28053.39
549.052	28053.39
549.416	28013.84
549.779	27871.24
550.143	27735.65
550.507	27867.18
550.871	28000.51
551.235	27859.49
551.599	27931.13
551.962	27962.09
552.326	27933.84
552.689	27876.67
553.053	27635.54
553.417	27687.75
553.78	27843
554.143	27686.84
554.507	27834.86
554.87	27806.84
555.234	27824.69
555.597	27596.45
555.96	27635.77
556.323	27637.58
556.686	27650.69
557.05	27788.08
557.413	27819.04
557.776	27755.99
558.139	27880.74
558.502	27748.08
558.865	27827.4
559.228	27905.14
559.59	27871.92
559.953	27948.08
560.316	28202.76
560.679	28079.37
561.041	28121.86
561.404	28132.25
561.767	28179.26
562.129	28073.95
562.492	28353.27
562.854	28325.47
563.217	28341.29
563.579	28307.62
563.941	28388.52
564.304	28455.18
564.666	28599.36
565.028	28590.32
565.39	28696.76
565.753	28862.4
566.115	28836.19
566.477	28901.73
566.839	28872.35
567.201	29088.39
567.563	28973.14
567.925	29277.31
568.287	29153.7
568.648	29179.23
569.01	29336.29
569.372	29580.13
569.734	29416.51
570.095	29681.37
570.457	29655.6
570.819	29689.28
571.18	29483.63
571.542	29834.13
571.903	29824.87
572.265	29885.2
572.626	29904.86
572.987	29908.48
573.349	29997.97
573.71	29993.22
574.071	30158.19
574.432	30242.03
574.794	30386.88
575.155	30279.32
575.516	30329.03
575.877	30409.48
576.238	30333.33
576.599	30416.71
576.96	30566.99
577.32	30472.08
577.681	30512.08
578.042	30677.72
578.403	30578.52
578.763	30524.96
579.124	30525.41
579.485	30635.47
579.845	30813.99
580.206	30570.61
580.566	30600.89
580.927	30769.25
581.287	30690.38
581.648	30510.95
582.008	30814.22
582.368	30728.12
582.728	30587.56
583.089	30648.57
583.449	30587.33
583.809	30666.65
584.169	30651.06
584.529	30524.28
584.889	30700.77
585.249	30437.05
585.609	30431.18
585.969	30590.72
586.329	30443.15
586.688	30533.1
587.048	30424.4
587.408	30461.91
587.768	30307.11
588.127	30223.27
588.487	30195.93
588.846	30373.33
589.206	30163.61
589.565	30178.53
589.925	30258.75
590.284	30200.45
590.643	30238.87
591.003	30190.51
591.362	30319.32
591.721	30186.21
592.08	30166.1
592.44	30214.91
592.799	30220.79
593.158	30058.08
593.517	30024.41
593.876	30079.32
594.235	29975.82
594.593	30035.03
594.952	29956.16
595.311	29970.4
595.67	30005.88
596.029	30230.5
596.387	30126.78
596.746	30171.07
597.104	30037.06
597.463	30039.55
597.822	30129.04
598.18	29982.15
598.538	30015.14
598.897	30028.48
599.255	29837.29
599.613	30237.06
599.972	29886.11
600.33	29987.35
600.688	30056.27
601.046	29980.12
601.404	30161.58
601.762	30031.64
602.12	30155.93
602.478	30124.07
602.836	30142.6
603.194	29907.8
603.552	30011.08
603.91	30027.57
604.268	30155.03
604.625	30012.88
604.983	30316.38
605.341	29985.99
605.698	30103.05
606.056	30317.51
606.413	30174.91
606.771	30255.14
607.128	30284.97
607.485	30136.04
607.843	30222.82
608.2	30273.44
608.557	30475.02
608.914	30332.2
609.272	30539.42
609.629	30703.03
609.986	30597.95
610.343	30522.93
610.7	30891.5
611.057	30715.01
611.414	30620.55
611.771	30795.24
612.127	30950.03
612.484	30893.09
612.841	30856.48
613.198	30861.45
613.554	30840.43
613.911	31091.27
614.267	31075.68
614.624	31020.77
614.98	30926.53
615.337	31206.3
615.693	31120.2
616.05	31256.24
616.406	31279.52
616.762	31197.71
617.118	31215.11
617.475	31362
617.831	31518.15
618.187	31398.61
618.543	31448.55
618.899	31573.75
619.255	31635.21
619.611	31486.97
619.967	31661.88
620.323	31747.75
620.678	31647.19
621.034	31587.31
621.39	31612.84
621.746	31697.36
622.101	31945.71
622.457	31677.25
622.812	31812.61
623.168	31820.52
623.523	31780.75
623.879	31907.07
624.234	31695.32
624.589	31900.74
624.945	31976.9
625.3	31830.69
625.655	31813.29
626.01	31954.3
626.365	31880.4
626.72	31815.55
627.075	31790.01
627.43	31848.54
627.785	31795.66
628.14	31842.21
628.495	31998.37
628.85	31928.99
629.205	31797.24
629.559	31914.53
629.914	31759.05
630.269	31858.71
630.623	31546.18
630.978	31553.41
631.332	31810.58
631.687	31790.24
632.041	31661.43
632.396	31646.29
632.75	31515.67
633.104	31672.05
633.459	31493.52
633.813	31451.72
634.167	31535.78
634.521	31346.86
634.875	31446.07
635.229	31392.73
635.583	31254.21
635.937	31191.16
636.291	31123.81
636.645	31252.85
636.999	30882.01
637.352	31052.4
637.706	30942.8
638.06	31143.93
638.413	30952.75
638.767	31018.73
639.121	30912.75
639.474	30884.95
639.828	30813.54
640.181	30779.42
640.534	30914.1
640.888	30673.66
641.241	30497.62
641.594	30562.47
641.947	30668.69
642.301	30639.31
642.654	30686.76
643.007	30573.32
643.36	30689.25
643.713	30556.82
644.066	30692.41
644.419	30343.5
644.771	30094.01
645.124	29689.95
645.477	29845.43
645.83	29599.79
646.182	29734.92
646.535	29607.7
646.888	29790.06
647.24	29674.59
647.593	29860.8
647.945	29677.75
648.298	29520.24
648.65	29423.07
649.002	29188.95
649.355	29070.31
649.707	28856.98
650.059	28901.05
650.411	29426.46
650.763	29583.29
651.115	30158.87
651.467	30022.37
651.819	29961.36
652.171	30145.54
652.523	29910.06
652.875	29979.66
653.227	29811.53
653.578	30040.45
653.93	29968.59
654.282	29848.14
654.633	29905.54
654.985	29890.85
655.337	29930.4
655.688	29837.97
656.039	29947.35
656.391	29684.3
656.742	29775.15
657.094	29868.71
657.445	29827.13
657.796	29942.6
658.147	29876.62
658.498	29887.46
658.849	29963.84
659.2	29909.38
659.551	29830.74
659.902	29936.05
660.253	29953.68
660.604	29978.53
660.955	29881.59
661.306	30107.34
661.656	29906.67
662.007	29931.3
662.358	30016.95
662.708	30009.95
663.059	29995.93
663.409	29780.57
663.76	30032.54
664.11	29978.53
664.461	30105.31
664.811	29998.65
665.161	30097.17
665.511	30001.13
665.862	30036.84
666.212	30132.2
666.562	30072.77
666.912	30063.5
667.262	29833.45
667.612	30060.34
667.962	30056.05
668.312	30004.07
668.662	30246.1
669.011	30159.55
669.361	30119.77
669.711	30135.59
670.06	30045.65
670.41	29953.68
670.76	29965.65
671.109	30074.12
671.459	30031.64
671.808	29920.68
672.157	30078.87
672.507	29808.82
672.856	29875.94
673.205	29893.56
673.554	29866.9
673.904	29816.28
674.253	29997.97
674.602	29675.04
674.951	29405.22
675.3	29213.81
675.649	29846.56
675.998	29810.85
676.346	29802.04
676.695	29829.16
677.044	29586.91
677.393	29635.04
677.741	29808.37
678.09	29524.76
678.438	29477.53
678.787	29564.76
679.135	29657.19
679.484	29378.32
679.832	29471.43
680.181	29304.88
680.529	29370.41
680.877	29302.17
681.225	29224.2
681.573	29409.74
681.922	29119.12
682.27	29158.67
682.618	29128.84
682.966	29008.39
683.314	29045.22
683.661	28904.21
684.009	28972.46
684.357	28776.31
684.705	28703.09
685.053	28829.19
685.4	28672.13
685.748	28585.58
686.095	28625.35
686.443	28362.08
686.79	28362.08
687.138	28249.31
687.485	28363.21
687.832	28111.46
688.18	28210.9
688.527	28172.48
688.874	28059.94
689.221	28108.98
689.568	27807.97
689.915	27842.77
690.262	27812.26
690.609	27758.71
690.956	27555.32
691.303	27587.86
691.65	27412.27
691.997	27392.61
692.344	27227.19
692.69	27186.06
693.037	27218.38
693.383	26882.34
693.73	26952.4
694.077	26932.51
694.423	26834.21
694.769	26665.4
695.116	26610.94
695.462	26488.46
695.808	26399.19
696.155	26495.46
696.501	26242.36
696.847	26355.58
697.193	26113.32
697.539	25900.45
697.885	25753.11
698.231	25780.45
698.577	25721.24
698.923	25782.94
699.269	25572.32
699.614	25448.71
699.96	25245.78
700.306	25326.9
700.651	25223.86
700.997	25139.56
701.342	25160.81
701.688	25067.48
702.033	24781.83
702.379	24848.95
702.724	24683.76
703.069	24688.5
703.415	24455.74
703.76	24448.28
704.105	24361.96
704.45	24224.56
704.795	24313.15
705.14	24064.11
705.485	24036.77
705.83	23862.08
706.175	23979.14
706.52	23917
706.865	23815.98
707.209	23692.37
707.554	23725.14
707.899	23703.67
708.243	23488.31
708.588	23553.17
708.932	23426.39
709.277	23503
709.621	23366.28
709.966	23253.96
710.31	23164.93
710.654	23050.35
710.998	23199.73
711.342	23107.53
711.687	22866.4
712.031	22943.24
712.375	22890.13
712.719	22861.21
713.063	22805.39
713.407	23015.78
713.75	22728.78
714.094	22806.97
714.438	22621.21
714.782	22599.74
715.125	22658.05
715.469	22765.62
715.812	22528.79
716.156	22502.12
716.499	22433.87
716.843	22486.75
717.186	22310.03
717.53	22593.87
717.873	22489.69
718.216	22463.03
718.559	22331.96
718.902	22122.24
719.246	22186.87
719.589	22192.52
719.932	22160.21
720.275	22185.74
720.617	22154.78
720.96	22085.63
721.303	22093.32
721.646	22181.22
721.989	21999.31
722.331	22020.32
722.674	22026.65
723.016	22096.71
723.359	21998.4
723.701	22045.41
724.044	21958.18
724.386	21849.71
724.729	21990.72
725.071	22029.14
725.413	21881.12
725.755	21905.98
726.097	21847.67
726.439	21832.08
726.782	21787.34
727.124	21904.62
727.465	21879.99
727.807	21761.35
728.149	21814.23
728.491	21727.23
728.833	21759.54
729.175	21672.31
729.516	21715.47
729.858	21725.19
730.199	21860.56
730.541	21786.66
730.882	21789.82
731.224	21897.84
731.565	21736.94
731.906	21651.75
732.248	21801.35
732.589	21767
732.93	21695.81
733.271	21820.1
733.612	21720.67
733.953	21877.5
734.294	21845.41
734.635	21830.27
734.976	21964.51
735.317	21740.56
735.658	21797.73
735.999	21812.65
736.339	21942.36
736.68	22083.37
737.021	21984.39
737.361	21945.07
737.702	22127.44
738.042	22077.72
738.383	22066.2
738.723	22212.86
739.063	22175.12
739.404	22191.17
739.744	22343.03
740.084	22338.96
740.424	22358.4
740.764	22328.57
741.104	22592.51
741.444	22476.13
741.784	22562.46
742.124	22592.06
742.464	22583.47
742.804	22637.03
743.143	22714.32
743.483	22843.13
743.823	22846.52
744.162	22957.48
744.502	23172.61
744.841	23134.65
745.181	23330.57
745.52	23373.06
745.86	23557.23
746.199	23645.82
746.538	23726.49
746.877	23977.79
747.216	24035.87
747.556	24081.74
747.895	24272.7
748.234	24227.05
748.573	24546.59
748.911	24646.7
749.25	24708.62
749.589	24935.73
749.928	25171.88
750.267	25416.17
750.605	25430.4
750.944	25688.48
751.283	25969.6
751.621	26116.71
751.96	26274
752.298	26461.34
752.636	26768.67
752.975	26818.84
753.313	27087.54
753.651	27406.4
753.989	27670.57
754.327	27767.07
754.666	27817.46
755.004	28108.07
755.342	28402.08
755.679	28574.5
756.017	28722.52
756.355	29139.23
756.693	29268.95
757.031	29713.91
757.368	29821.93
757.706	30096.04
758.044	30209.04
758.381	30522.93
758.719	30707.55
759.056	30903.71
759.394	31117.49
759.731	31285.39
760.068	31532.39
760.405	31843.8
760.743	31977.58
761.08	32162.66
761.417	32367.17
761.754	32547.51
762.091	32882.86
762.428	32903.88
762.765	33059.81
763.102	33393.36
763.438	33439.69
763.775	33582.73
764.112	33800.35
764.449	34067.47
764.785	34109.5
765.122	34337.97
765.458	34338.19
765.795	34432.88
766.131	34864.06
766.467	34903.38
766.804	34891.4
767.14	35030.15
767.476	35243.71
767.812	35291.61
768.148	35561.66
768.485	35545.39
768.821	35687.54
769.157	35639.18
769.492	35729.34
769.828	35890.69
770.164	35751.04
770.5	35958.49
770.836	36208.88
771.171	36282.32
771.507	36114.87
771.842	36053.63
772.178	36240.06
772.513	36353.51
772.849	36368.2
773.184	36265.83
773.519	36507.85
773.855	36429.44
774.19	36494.97
774.525	36474.63
774.86	36490.23
775.195	36508.53
775.53	36421.98
775.865	36390.12
776.2	36320.74
776.535	36075.55
776.87	36381.3
777.205	36211.59
777.539	36308.76
777.874	36346.5
778.209	36135.43
778.543	36279.39
778.878	36104.25
779.212	36180.86
779.547	35883.92
779.881	35974.53
780.215	35858.38
780.55	35924.37
780.884	35697.71
781.218	35758.27
781.552	35706.07
781.886	35604.6
782.22	35399.86
782.554	35397.83
782.888	35263.37
783.222	35222.69
783.556	35093.43
783.889	35085.29
784.223	34833.1
784.557	34933.88
784.89	34990.15
785.224	34787.22
785.557	34804.62
785.891	34752.87
786.224	34656.15
786.558	34610.73
786.891	34403.95
787.224	34160.34
787.557	34157.86
787.891	34129.39
788.224	34039.44
788.557	34089.16
788.89	33917.19
789.223	33976.39
789.556	33654.6
789.888	33825.89
790.221	33637.42
790.554	33594.03
790.887	33429.74
791.219	33445.79
791.552	33307.94
791.884	33267.26
792.217	33112.46
792.549	33005.35
792.882	32807.16
793.214	32882.19
793.546	32905.69
793.879	32822.53
794.211	32612.36
794.543	32615.07
794.875	32506.15
795.207	32518.58
795.539	32345.03
795.871	32526.94
796.203	32287.17
796.535	32047.63
796.867	32201.75
797.198	31780.75
797.53	31921.31
797.862	31644.7
798.193	31839.28
798.525	31568.32
798.856	31748.2
799.188	31405.39
799.519	31330.81
799.85	31315.9
800.182	31273.64
800.513	31432.51
800.844	30962.46
801.175	31221.66
801.506	31102.8
801.837	30899.41
802.168	30884.5
802.499	31017.6
802.83	30746.42
803.161	30781.45
803.491	30634.56
803.822	30805.4
804.153	30447.67
804.483	30265.53
804.814	30167
805.145	30195.93
805.475	30231.18
805.805	30202.48
806.136	30247.68
806.466	30160.45
806.796	30179.21
807.126	29886.33
807.457	29960.91
807.787	29859.44
808.117	29718.88
808.447	29820.12
808.777	29753.91
809.107	29515.72
809.436	29456.29
809.766	29482.28
810.096	29489.96
810.426	29389.4
810.755	29497.64
811.085	29399.11
811.414	29364.76
811.744	29260.81
812.073	29220.14
812.403	28996.64
812.732	28998.9
813.061	29200.25
813.39	28923.19
813.719	28756.87
814.049	29075.96
814.378	28847.26
814.707	28658.34
815.036	28727.95
815.365	28518.23
815.693	28332.02
816.022	28454.51
816.351	28365.47
816.68	28304.23
817.008	28393.72
817.337	28146.49
817.665	28251.8
817.994	28086.83
818.322	28275.75
818.651	28031.92
818.979	28090
819.307	28046.61
819.636	28078.47
819.964	27869.66
820.292	27960.73
820.62	27858.82
820.948	27909.44
821.276	28062.88
821.604	27917.8
821.932	28140.16
822.259	28012.71
822.587	28025.82
822.915	27950.34
823.243	28067.4
823.57	27857.23
823.898	28129.09
824.225	27965.48
824.553	27893.62
824.88	28073.27
825.207	28138.81
825.535	28033.05
825.862	28110.56
826.189	28042.09
826.516	28343.1
826.843	28234.17
827.17	28354.62
827.497	28235.98
827.824	28245.02
828.151	28275.75
828.478	28187.62
828.805	28220.39
829.131	28145.36
829.458	28186.26
829.785	28073.27
830.111	28089.54
830.438	28363.89
830.764	28212.93
831.09	28266.49
831.417	28040.51
831.743	28432.81
832.069	28261.52
832.395	28045.93
832.722	28216.77
833.048	28209.09
833.374	28186.26
833.7	28130.22
834.026	28200.5
834.351	28103.33
834.677	28242.31
835.003	28185.81
835.329	28171.12
835.654	28132.48
835.98	27832.15
836.306	28053.16
836.631	28061.07
836.956	28094.29
837.282	28064.46
837.607	27907.85
837.932	28022.65
838.258	27847.06
838.583	27957.34
838.908	27824.92
839.233	27865.37
839.558	27732.04
839.883	27758.25
840.208	27702.66
840.533	27813.17
840.858	27725.03
841.182	27716.22
841.507	27588.99
841.832	27540.86
842.156	27673.51
842.481	27536.34
842.805	27391.71
843.13	27361.65
843.454	27392.61
843.778	27285.95
844.103	27274.2
844.427	27161.21
844.751	27216.8
845.075	27127.54
845.399	27036.92
845.723	26904.72
846.047	26913.3
846.371	26855.9
846.695	26786.3
847.019	26563.93
847.343	26373.43
847.666	26431.06
847.99	26272.42
848.313	26173.66
848.637	26221.12
848.96	26120.1
849.284	26122.36
849.607	25793.33
849.931	25761.47
850.254	25497.07
850.577	25484.41
850.9	25240.81
851.223	25316.51
851.546	25190.64
851.869	25092.11
852.192	25262.27
852.515	25038.32
852.838	24727.6
853.161	24931.66
853.483	24673.81
853.806	24614.38
854.129	24540.26
854.451	24469.07
854.774	24291.68
855.096	24286.25
855.419	24228.85
855.741	24181.62
856.063	24062.98
856.385	23980.5
856.708	23967.39
857.03	23901.86
857.352	23799.26
857.674	23851.69
857.996	23676.55
858.318	23425.03
858.64	23528.76
858.961	23464.13
859.283	23353.4
859.605	23331.25
859.926	23397.01
860.248	23180.52
860.57	23104.14
860.891	23080.18
861.212	22917.7
861.534	22934.43
861.855	22937.59
862.176	22923.13
862.498	22896.23
862.819	22926.52
863.14	22855.33
863.461	22751.15
863.782	22715.22
864.103	22704.6
864.424	22651.95
864.745	22535.34
865.065	22424.83
865.386	22411.05
865.707	22460.09
866.027	22387.09
866.348	22491.27
866.668	22393.87
866.989	22253.54
867.309	22026.65
867.63	22134.22
867.95	22300.77
868.27	22073.66
868.59	22160.43
868.91	21996.37
869.23	21931.06
869.55	21941.23
869.87	22045.64
870.19	21804.06
870.51	21931.97
870.83	21734.68
871.15	21714.34
871.469	21700.79
871.789	21891.29
872.109	21769.71
872.428	21679.77
872.748	21758.64
873.067	21701.69
873.386	21722.93
873.706	21602.71
874.025	21611.3
874.344	21495.37
874.663	21434.58
874.982	21430.96
875.301	21437.06
875.62	21327.69
875.939	21381.25
876.258	21346.9
876.577	21273.9
876.896	21202.49
877.214	21245.43
877.533	21167.47
877.852	21232.32
878.17	21132.66
878.489	21101.93
878.807	21027.36
879.125	20977.19
879.444	21052.67
879.762	20849.73
880.08	20870.52
880.398	20893.57
880.716	20880.24
881.034	20879.34
881.352	20687.93
881.67	20710.3
881.988	20725.67
882.306	20609.06
882.624	20620.14
882.941	20439.58
883.259	20474.6
883.577	20317.54
883.894	20325
884.212	20255.85
884.529	20217.89
884.846	20171.11
885.164	20245.91
885.481	20142.63
885.798	20216.98
886.115	19938.35
886.432	20120.49
886.75	19968.18
887.067	20069.42
887.383	19833.94
887.7	19847.73
888.017	19834.62
888.334	19852.92
888.651	19753.94
888.967	19804.11
889.284	19572.03
889.6	19549.43
889.917	19527.96
890.233	19464.91
890.55	19321.19
890.866	19325.71
891.182	19308.31
891.498	19290
891.815	19219.04
892.131	19045.71
892.447	19040.97
892.763	18919.84
893.079	18981.31
893.395	18899.28
893.71	18808.66
894.026	18836.45
894.342	18718.04
894.657	18646.85
894.973	18636.01
895.289	18627.65
895.604	18526.18
895.92	18368.9
896.235	18346.3
896.55	18340.42
896.865	18275.56
897.181	18290.48
897.496	18188.79
897.811	18028.11
898.126	18024.05
898.441	17994.44
898.756	17952.86
899.071	17789.7
899.386	17899.53
899.7	17681.23
900.015	17562.14
900.33	17454.57
900.644	17423.61
900.959	17475.36
901.273	17380.22
901.588	17275.82
901.902	17237.63
902.216	17116.73
902.531	17244.63
902.845	17029.04
903.159	16926.67
903.473	16898.88
903.787	16771.65
904.101	16752.21
904.415	16741.37
904.729	16603.97
905.042	16522.16
905.356	16437.87
905.67	16394.71
905.984	16353.13
906.297	16312.23
906.611	16287.82
906.924	16219.8
907.237	16126.24
907.551	16147.71
907.864	15997.66
908.177	16016.42
908.491	15931.67
908.804	15765.8
909.117	15780.72
909.43	15665.92
909.743	15564.45
910.056	15550.44
910.368	15485.13
910.681	15357.45
910.994	15304.8
911.307	15329.88
911.619	15158.36
911.932	15151.58
912.244	14981.87
912.557	14950.45
912.869	14880.4
913.181	14897.57
913.494	14930.34
913.806	14738.93
914.118	14717.47
914.43	14678.82
914.742	14552.95
915.054	14550.01
915.366	14463.69
915.678	14324.48
915.99	14360.87
916.302	14217.37
916.613	14189.57
916.925	14227.99
917.236	14129.23
917.548	14035.22
917.859	14053.08
918.171	13932.4
918.482	13841.1
918.794	13783.48
919.105	13773.08
919.416	13626.2
919.727	13688.11
920.038	13574.45
920.349	13491.28
920.66	13419.65
920.971	13526.99
921.282	13405.86
921.593	13311.4
921.903	13170.84
922.214	13189.6
922.525	13127.9
922.835	13047
923.146	12931.07
923.456	12919.55
923.767	12902.6
924.077	12842.94
924.387	12804.3
924.697	12725.43
925.008	12770.85
925.318	12618.54
925.628	12610.85
925.938	12562.49
926.248	12421.48
926.558	12362.5
926.867	12382.61
927.177	12314.37
927.487	12208.83
927.796	12204.31
928.106	12186.23
928.416	12106.91
928.725	12099.91
929.034	12059.91
929.344	12032.56
929.653	11935.84
929.962	11847.71
930.271	11827.37
930.581	11706.92
930.89	11757.77
931.199	11632.58
931.508	11546.25
931.817	11641.39
932.125	11516.87
932.434	11474.16
932.743	11366.37
933.051	11376.31
933.36	11290.21
933.669	11226.26
933.977	11181.51
934.286	11210.89
934.594	11089.99
934.902	11090.44
935.21	11053.38
935.519	10961.86
935.827	10942.65
936.135	10862.65
936.443	10820.39
936.751	10799.83
937.059	10716.44
937.367	10689.1
937.674	10700.17
937.982	10621.98
938.29	10572.49
938.597	10564.81
938.905	10396.9
939.213	10431.48
939.52	10394.87
939.827	10417.69
940.135	10297.02
940.442	10253.63
940.749	10131.6
941.056	10251.59
941.363	10124.14
941.67	10133.18
941.977	10089.34
942.284	10020.64
942.591	9953.98
942.898	9885.73
943.205	9873.53
943.511	9776.35
943.818	9813.64
944.125	9714.66
944.431	9737.26
944.738	9633.53
945.044	9617.26
945.35	9487.32
945.657	9506.53
945.963	9466.3
946.269	9418.85
946.575	9388.57
946.881	9358.96
947.187	9332.75
947.493	9207.78
947.799	9235.12
948.105	9167.33
948.41	9078.29
948.716	9125.97
949.022	9026.99
949.327	9018.18
949.633	8923.72
949.938	9046.2
950.244	8970.5
950.549	8851.41
950.854	8824.74
951.16	8848.69
951.465	8718.08
951.77	8675.59
952.075	8689.83
952.38	8694.8
952.685	8549.72
952.99	8553.11
953.294	8546.55
953.599	8445.09
953.904	8479.44
954.209	8354.92
954.513	8345.88
954.818	8278.99
955.122	8301.82
955.426	8236.73
955.731	8251.65
956.035	8189.5
956.339	8121.93
956.643	8144.98
956.948	8051.43
957.252	8062.05
957.556	8010.07
957.86	7974.14
958.163	7899.34
958.467	7891.66
958.771	7925.78
959.075	7797.42
959.378	7821.38
959.682	7729.18
959.985	7732.11
960.289	7641.04
960.592	7577.09
960.896	7579.8
961.199	7549.29
961.502	7561.04
961.805	7518.11
962.108	7406.02
962.411	7408.73
962.714	7376.19
963.017	7344.33
963.32	7383.65
963.623	7291.22
963.926	7241.5
964.228	7228.4
964.531	7214.61
964.833	7200.15
965.136	7097.55
965.438	7115.18
965.741	7013.26
966.043	7040.83
966.345	6959.7
966.648	6972.13
966.95	6960.16
967.252	6945.47
967.554	6925.35
967.856	6767.17
968.158	6805.36
968.46	6799.93
968.761	6736.43
969.063	6776.66
969.365	6680.39
969.666	6698.69
969.968	6602.88
970.269	6576.89
970.571	6577.57
970.872	6554.97
971.174	6442.43
971.475	6494.86
971.776	6438.81
972.077	6486.5
972.378	6397.68
972.679	6361.98
972.98	6344.13
973.281	6307.07
973.582	6253.96
973.883	6214.19
974.183	6228.65
974.484	6193.62
974.785	6234.75
975.085	6145.49
975.386	6141.19
975.686	6094.42
975.986	6061.87
976.287	6061.87
976.587	5952.95
976.887	5941.88
977.187	5950.92
977.487	5911.14
977.787	5875.21
978.087	5864.59
978.387	5798.15
978.687	5806.97
978.987	5753.41
979.286	5725.84
979.586	5795.44
979.885	5663.69
980.185	5672.05
980.484	5635.22
980.784	5648.78
981.083	5606.75
981.382	5587.31
981.682	5569.91
981.981	5534.66
982.28	5467.54
982.579	5432.06
982.878	5419.63
983.177	5401.78
983.475	5398.84
983.774	5357.26
984.073	5336.47
984.372	5303.93
984.67	5297.83
984.969	5281.1
985.267	5264.38
985.566	5196.13
985.864	5196.13
986.162	5202.24
986.461	5101.9
986.759	5082.69
987.057	5036.82
987.355	5002.24
987.653	5007.89
987.951	5031.17
988.249	4949.14
988.547	4983.94
988.844	4944.39
989.142	4886.99
989.44	4857.39
989.737	4902.58
990.035	4824.39
990.332	4754.11
990.63	4835.69
990.927	4764.96
991.224	4726.32
991.521	4721.8
991.819	4703.72
992.116	4651.06
992.413	4617.62
992.71	4657.62
993.006	4630.95
993.303	4584.63
993.6	4549.37
993.897	4532.88
994.193	4520.22
994.49	4442.93
994.787	4455.14
995.083	4408.81
995.379	4402.94
995.676	4408.13
995.972	4356.83
996.268	4330.85
996.565	4320.9
996.861	4324.07
997.157	4266.89
997.453	4237.29
997.749	4221.92
998.044	4206.78
998.34	4202.49
998.636	4149.61
998.932	4147.35
999.227	4127.69
999.523	4090.85
999.818	4035.94
1000.114	4017.18
1000.409	4027.8
1000.704	3980.57
1001	3986
1001.295	3957.75
1001.59	3944.87
1001.885	3913.68
1002.18	3870.52
1002.475	3882.72
1002.77	3853.57
1003.065	3795.49
1003.359	3792.56
1003.654	3811.54
1003.949	3762.95
1004.243	3725.44
1004.538	3713.69
1004.832	3683.41
1005.127	3688.38
1005.421	3626.23
1005.715	3659.23
1006.009	3569.51
1006.304	3583.75
1006.598	3553.01
1006.892	3554.82
1007.186	3501.94
1007.48	3493.58
1007.773	3479.57
1008.067	3452.9
1008.361	3437.08
1008.655	3408.16
1008.948	3404.32
1009.242	3392.79
1009.535	3364.77
1009.829	3351.89
1010.122	3293.36
1010.415	3269.41
1010.708	3252.46
1011.001	3263.3
1011.295	3233.7
1011.588	3188.5
1011.881	3153.93
1012.173	3154.83
1012.466	3160.03
1012.759	3097.21
1013.052	3125.23
1013.344	3083.42
1013.637	3078.22
1013.93	3048.62
1014.222	3015.17
1014.514	3006.14
1014.807	2973.82
1015.099	2963.88
1015.391	2943.31
1015.683	2944.89
1015.976	2880.72
1016.268	2881.62
1016.56	2872.13
1016.851	2786.71
1017.143	2862.64
1017.435	2820.38
1017.727	2787.16
1018.018	2759.36
1018.31	2750.55
1018.602	2723.21
1018.893	2722.53
1019.185	2657.67
1019.476	2664.9
1019.767	2673.04
1020.058	2660.61
1020.35	2613.83
1020.641	2629.42
1020.932	2549.2
1021.223	2577.22
1021.514	2517.11
1021.804	2485.25
1022.095	2506.94
1022.386	2473.04
1022.677	2471.91
1022.967	2477.56
1023.258	2448.64
1023.548	2410.67
1023.839	2393.72
1024.129	2393.95
1024.419	2378.81
1024.709	2337.23
1025	2338.58
1025.29	2323.67
1025.58	2303.78
1025.87	2289.09
1026.16	2255.87
1026.449	2235.53
1026.739	2252.03
1027.029	2221.52
1027.319	2204.35
1027.608	2155.76
1027.898	2167.29
1028.187	2169.55
1028.477	2142.43
1028.766	2126.61
1029.055	2106.72
1029.344	2096.1
1029.634	2056.78
1029.923	2077.35
1030.212	2030.34
1030.501	2039.16
1030.79	1981.53
1031.078	2012.49
1031.367	1990.57
1031.656	2001.64
1031.945	1941.53
1032.233	1923.23
1032.522	1899.95
1032.81	1942.43
1033.099	1885.94
1033.387	1890.01
1033.675	1870.12
1033.963	1873.74
1034.251	1830.8
1034.54	1832.61
1034.828	1819.73
1035.116	1802.78
1035.403	1799.61
1035.691	1773.17
1035.979	1793.06
1036.267	1742.21
1036.554	1752.38
1036.842	1713.29
1037.129	1715.55
1037.417	1684.14
1037.704	1698.15
1037.992	1696.79
1038.279	1644.14
1038.566	1623.8
1038.853	1623.8
1039.14	1623.8
