Data from 3278_FLMS001491_002.txt Node
Date: Thu Apr 19 15:16:03 BST 2018
User: hsy
Spectrometer: FLMS00149
Trigger mode: 0
Integration Time (sec): 1.000000E-2
Scans to average: 10
Electric dark correction enabled: true
Nonlinearity correction enabled: false
Boxcar width: 0
XAxis mode: Wavelengths
Number of Pixels in Spectrum: 2048
>>>>>Begin Spectral Data<<<<<
341.393	1.92
341.776	1.92
342.16	1.92
342.543	-40.56
342.927	-57.29
343.31	-74.46
343.693	-66.1
344.077	-53.22
344.46	-70.85
344.843	-50.96
345.226	-47.12
345.61	-23.39
345.993	-22.03
346.376	-5.76
346.759	19.1
347.142	26.55
347.525	38.08
347.908	47.57
348.291	76.72
348.674	94.8
349.057	111.07
349.44	140.67
349.823	131.41
350.206	175.48
350.588	223.61
350.971	227
351.354	273.1
351.737	275.81
352.119	286.89
352.502	298.86
352.884	321.01
353.267	321.69
353.65	324.85
354.032	344.06
354.414	353.1
354.797	350.16
355.179	349.03
355.562	368.24
355.944	372.53
356.326	366.66
356.709	380.67
357.091	395.81
357.473	377.28
357.855	375.92
358.238	384.74
358.62	400.33
359.002	402.14
359.384	395.36
359.766	373.89
360.148	385.87
360.53	370.5
360.912	392.87
361.294	373.89
361.676	380.22
362.057	387.22
362.439	381.57
362.821	386.77
363.203	377.5
363.584	383.38
363.966	382.7
364.348	381.8
364.729	357.62
365.111	370.5
365.493	368.24
365.874	375.47
366.256	369.59
366.637	371.85
367.019	380.67
367.4	362.14
367.781	390.39
368.163	376.83
368.544	378.41
368.925	379.31
369.306	359.88
369.688	353.32
370.069	375.92
370.45	365.98
370.831	371.63
371.212	389.03
371.593	374.11
371.974	367.11
372.355	366.66
372.736	384.06
373.117	373.44
373.498	401.01
373.879	370.72
374.26	397.62
374.641	393.32
375.021	365.3
375.402	408.01
375.783	397.16
376.163	402.36
376.544	401.68
376.925	408.69
377.305	397.16
377.686	393.55
378.066	412.08
378.447	409.37
378.827	410.72
379.208	413.44
379.588	415.02
379.968	412.76
380.349	402.36
380.729	415.7
381.109	432.19
381.489	433.1
381.87	414.57
382.25	407.56
382.63	439.65
383.01	443.04
383.39	406.88
383.77	421.8
384.15	416.6
384.53	437.16
384.91	447.56
385.29	455.02
385.67	467.22
386.049	438.52
386.429	452.3
386.809	473.77
387.189	492.76
387.568	443.49
387.948	463.15
388.328	469.93
388.707	457.73
389.087	491.63
389.466	479.2
389.846	471.96
390.225	474.9
390.605	483.04
390.984	499.31
391.363	482.36
391.743	519.2
392.122	507.9
392.501	516.48
392.881	520.78
393.26	497.73
393.639	495.92
394.018	537.73
394.397	546.99
394.776	533.88
395.155	511.96
395.534	548.8
395.913	537.27
396.292	564.39
396.671	551.28
397.05	546.31
397.429	546.99
397.808	548.12
398.186	559.42
398.565	556.03
398.944	583.83
399.323	583.37
399.701	573.43
400.08	582.7
400.458	584.5
400.837	600.55
401.215	586.99
401.594	590.61
401.972	604.62
402.351	591.06
402.729	609.36
403.107	628.35
403.486	632.86
403.864	610.72
404.242	638.51
404.62	638.29
404.999	647.1
405.377	627.44
405.755	661.56
406.133	671.28
406.511	650.94
406.889	662.69
407.267	673.54
407.645	677.61
408.023	693.2
408.401	694.11
408.779	699.08
409.156	744.05
409.534	731.62
409.912	727.1
410.29	725.52
410.667	763.03
411.045	761.45
411.422	752.86
411.8	759.64
412.178	798.74
412.555	795.35
412.933	796.48
413.31	822.92
413.687	822.01
414.065	793.54
414.442	840.99
414.819	843.03
415.197	844.16
415.574	865.63
415.951	868.79
416.328	887.1
416.705	880.32
417.082	867.21
417.46	881.67
417.837	907.21
418.214	881.45
418.591	912.18
418.967	886.64
419.344	894.55
419.721	924.16
420.098	935.46
420.475	956.25
420.852	944.27
421.228	964.38
421.605	972.97
421.982	981.78
422.358	993.31
422.735	998.05
423.111	991.05
423.488	1018.84
423.864	1003.25
424.241	1015.23
424.617	1053.64
424.994	1036.24
425.37	1036.24
425.746	1055
426.123	1089.58
426.499	1062.46
426.875	1093.64
427.251	1111.27
427.627	1112.4
428.003	1162.79
428.379	1135
428.756	1175
429.132	1165.51
429.507	1196.47
429.883	1193.75
430.259	1223.13
430.635	1230.36
431.011	1223.36
431.387	1245.5
431.763	1259.51
432.138	1280.31
432.514	1282.57
432.89	1308.1
433.265	1313.07
433.641	1357.59
434.016	1327.08
434.392	1366.4
434.767	1394.88
435.143	1408.66
435.518	1393.52
435.894	1433.52
436.269	1454.09
436.644	1464.71
437.02	1491.83
437.395	1496.57
437.77	1504.71
438.145	1523.01
438.52	1519.4
438.895	1556.68
439.271	1537.93
439.646	1613.86
440.021	1592.16
440.395	1640.75
440.77	1612.27
441.145	1616.57
441.52	1651.37
441.895	1648.43
442.27	1661.54
442.645	1651.14
443.019	1655.44
443.394	1687.53
443.769	1676
444.143	1690.69
444.518	1715.55
444.892	1735.89
445.267	1724.36
445.641	1770.46
446.016	1741.31
446.39	1776.34
446.764	1777.92
447.139	1826.51
447.513	1777.24
447.887	1817.92
448.262	1818.14
448.636	1854.3
449.01	1861.08
449.384	1877.13
449.758	1925.26
450.132	1890.68
450.506	1920.74
450.88	1922.55
451.254	1959.61
451.628	1960.51
452.002	1998.7
452.376	2047.52
452.75	2032.15
453.123	2060.85
453.497	2087.52
453.871	2074.86
454.244	2146.95
454.618	2165.48
454.992	2192.37
455.365	2187.85
455.739	2251.81
456.112	2251.13
456.486	2237.12
456.859	2326.61
457.232	2355.98
457.606	2373.16
457.979	2385.14
458.352	2433.27
458.725	2437.34
459.099	2484.12
459.472	2516.88
459.845	2583.1
460.218	2609.08
460.591	2595.98
460.964	2635.3
461.337	2676.43
461.71	2704
462.083	2716.65
462.456	2759.59
462.829	2774.5
463.201	2860.15
463.574	2827.38
463.947	2850.21
464.32	2929.3
464.692	2960.04
465.065	2982.41
465.438	2989.86
465.81	3064.89
466.183	3087.26
466.555	3158.9
466.928	3169.75
467.3	3199.58
467.672	3233.47
468.045	3288.39
468.417	3305.11
468.789	3311.21
469.161	3345.79
469.534	3420.14
469.906	3464.43
470.278	3513.69
470.65	3553.47
471.022	3611.32
471.394	3654.03
471.766	3674.59
472.138	3767.02
472.51	3796.62
472.882	3924.3
473.253	3878.66
473.625	3937.64
473.997	4103.96
474.369	4140.12
474.74	4129.27
475.112	4242.71
475.484	4293.11
475.855	4355.25
476.227	4413.78
476.598	4538.52
476.97	4585.3
477.341	4654
477.713	4772.19
478.084	4795.02
478.455	4933.09
478.827	4963.15
479.198	5123.14
479.569	5147.32
479.94	5296.7
480.311	5420.76
480.682	5475.45
481.053	5614.65
481.424	5682.68
481.795	5792.96
482.166	5895.78
482.537	5943.69
482.908	6113.4
483.279	6190.23
483.65	6324.69
484.021	6468.19
484.391	6653.72
484.762	6611.46
485.133	6784.12
485.503	6882.87
485.874	7035.86
486.244	7123.99
486.615	7310.88
486.985	7435.17
487.356	7608.05
487.726	7665.9
488.097	7984.54
488.467	8067.92
488.837	8267.92
489.207	8329.16
489.578	8561.92
489.948	8669.04
490.318	8890.73
490.688	8977.73
491.058	9175.92
491.428	9343.37
491.798	9488.23
492.168	9715.56
492.538	9861.32
492.908	10013.64
493.278	10172.5
493.648	10320.29
494.017	10544.92
494.387	10745.14
494.757	10948.53
495.126	11064
495.496	11230.55
495.866	11472.58
496.235	11681.39
496.605	11849.97
496.974	12068.95
497.344	12296.06
497.713	12440.01
498.082	12638.2
498.452	12834.8
498.821	13056.49
499.19	13175.13
499.559	13415.13
499.928	13631.17
500.298	13798.17
500.667	14101.44
501.036	14198.84
501.405	14453.97
501.774	14620.97
502.143	14828.42
502.512	15005.37
502.88	15249.88
503.249	15429.09
503.618	15638.57
503.987	15805.57
504.356	16049.41
504.724	16290.53
505.093	16463.18
505.462	16646
505.83	16873.12
506.199	17110.85
506.567	17429.26
506.936	17547.67
507.304	17726.2
507.672	17998.74
508.041	18038.73
508.409	18280.08
508.777	18473.07
509.145	18712.39
509.514	18791.48
509.882	19016.79
510.25	19208.65
510.618	19333.84
510.986	19499.49
511.354	19754.62
511.722	19969.76
512.09	20101.96
512.458	20221.73
512.826	20456.75
513.193	20491.33
513.561	20579.91
513.929	20800.47
514.297	20981.26
514.664	21109.16
515.032	21255.83
515.4	21546.44
515.767	21571.98
516.135	21752.54
516.502	21581.69
516.869	22069.82
517.237	22158.85
517.604	22046.31
517.972	22420.77
518.339	22443.36
518.706	22612.85
519.073	22598.39
519.44	22748.89
519.808	22965.38
520.175	23020.98
520.542	23120.64
520.909	23347.97
521.276	23287.86
521.643	23603.33
522.009	23656.21
522.376	23823.67
522.743	23850.79
523.11	24083.32
523.477	24199.48
523.843	24257.1
524.21	24485.34
524.577	24678.79
524.943	24641.05
525.31	24697.77
525.676	24887.59
526.043	25058.21
526.409	25097.98
526.776	25310.41
527.142	25205.33
527.508	25381.14
527.874	25632.89
528.241	25662.26
528.607	25624.07
528.973	26000.56
529.339	25789.49
529.705	26072.65
530.071	26022.03
530.437	26065.64
530.803	26281.23
531.169	26332.08
531.535	26127.11
531.901	26342.92
532.267	26214.79
532.632	26452.07
532.998	26465.63
533.364	26433.77
533.73	26540.43
534.095	26670.6
534.461	26564.16
534.826	26693.42
535.192	26608.9
535.557	26731.84
535.923	26584.95
536.288	26634.44
536.653	26679.86
537.019	26532.97
537.384	26528.91
537.749	26600.32
538.114	26474.67
538.479	26455.46
538.845	26453.88
539.21	26432.41
539.575	26488.91
539.94	26456.14
540.305	26410.49
540.67	26330.72
541.034	26399.64
541.399	26354
541.764	26213.89
542.129	26335.01
542.494	26297.95
542.858	26254.11
543.223	26096.83
543.587	26133.66
543.952	26078.98
544.316	26085.08
544.681	26011.18
545.045	25979.54
545.41	26058.41
545.774	25911.75
546.138	25836.27
546.503	25935.93
546.867	25864.29
547.231	25953.1
547.595	25865.65
547.959	25754.01
548.324	25754.69
548.688	25669.04
549.052	25690.74
549.416	25556.96
549.779	25490.29
550.143	25508.59
550.507	25489.61
550.871	25514.02
551.235	25423.17
551.599	25638.99
551.962	25556.28
552.326	25474.7
552.689	25525.32
553.053	25241.94
553.417	25331.42
553.78	25533.45
554.143	25385.66
554.507	25431.76
554.87	25321.03
555.234	25483.06
555.597	25366.45
555.96	25391.54
556.323	25348.6
556.686	25281.71
557.05	25343.18
557.413	25399.9
557.776	25327.58
558.139	25413.23
558.502	25360.8
558.865	25351.99
559.228	25420.01
559.59	25399.9
559.953	25392.21
560.316	25597.18
560.679	25437.41
561.041	25460.91
561.404	25617.52
561.767	25750.4
562.129	25613.9
562.492	25872.43
562.854	25669.49
563.217	25671.98
563.579	25691.41
563.941	25805.08
564.304	25893.44
564.666	26081.91
565.028	25824.52
565.39	25953.1
565.753	26161.01
566.115	26135.47
566.477	26164.17
566.839	26268.8
567.201	26493.88
567.563	26317.39
567.925	26548.57
568.287	26466.76
568.648	26454.56
569.01	26676.93
569.372	26763.25
569.734	26630.15
570.095	26847.09
570.457	26892.51
570.819	26937.26
571.18	26827.66
571.542	26974.54
571.903	27018.61
572.265	27036.69
572.626	27190.36
572.987	27049.35
573.349	27250.47
573.71	27252.73
574.071	27317.81
574.432	27419.51
574.794	27506.51
575.155	27499.05
575.516	27479.16
575.877	27537.02
576.238	27484.59
576.599	27594.64
576.96	27714.19
577.32	27639.16
577.681	27547.64
578.042	27691.81
578.403	27728.2
578.763	27707.18
579.124	27750.8
579.485	27823.34
579.845	27787.4
580.206	27738.82
580.566	27746.05
580.927	27782.89
581.287	27901.3
581.648	27717.35
582.008	27855.65
582.368	27812.26
582.728	27793.05
583.089	27698.82
583.449	27724.13
583.809	27632.15
584.169	27739.95
584.529	27520.52
584.889	27703.34
585.249	27681.65
585.609	27623.79
585.969	27671.93
586.329	27596.68
586.688	27547.41
587.048	27625.38
587.408	27492.05
587.768	27403.91
588.127	27438.71
588.487	27260.41
588.846	27519.84
589.206	27295.89
589.565	27205.95
589.925	27301.54
590.284	27332.73
590.643	27241.66
591.003	27210.7
591.362	27353.52
591.721	27334.08
592.08	27272.62
592.44	27421.99
592.799	27383.12
593.158	27192.62
593.517	27265.61
593.876	27271.94
594.235	27052.06
594.593	27169.12
594.952	27202.11
595.311	27111.49
595.67	27241.2
596.029	27370.69
596.387	27228.55
596.746	27399.39
597.104	27091.83
597.463	27012.51
597.822	27207.53
598.18	27102.9
598.538	27030.81
598.897	27186.74
599.255	26984.26
599.613	27353.74
599.972	27118.95
600.33	27135.9
600.688	27171.6
601.046	27143.35
601.404	27267.19
601.762	27214.76
602.12	27212.96
602.478	27133.18
602.836	27210.92
603.194	27006.63
603.552	27133.18
603.91	27053.86
604.268	27174.99
604.625	27255.44
604.983	27319.17
605.341	27093.64
605.698	27252.5
606.056	27401.65
606.413	27260.19
606.771	27465.15
607.128	27382.67
607.485	27263.35
607.843	27239.17
608.2	27335.67
608.557	27385.16
608.914	27397.81
609.272	27500.18
609.629	27689.1
609.986	27697.01
610.343	27777.69
610.7	27799.83
611.057	27804.35
611.414	27785.6
611.771	27847.29
612.127	27828.31
612.484	27891.58
612.841	27888.65
613.198	27821.3
613.554	27769.55
613.911	28072.37
614.267	27944.91
614.624	27986.5
614.98	27862.43
615.337	28117.79
615.693	28142.65
616.05	28176.55
616.406	28307.39
616.762	28147.62
617.118	28335.19
617.475	28235.98
617.831	28278.69
618.187	28372.25
618.543	28335.64
618.899	28509.42
619.255	28409.08
619.611	28468.07
619.967	28665.12
620.323	28662.64
620.678	28513.94
621.034	28638.23
621.39	28628.06
621.746	28550.55
622.101	28892.23
622.457	28537.22
622.812	28769.75
623.168	28883.2
623.523	28820.37
623.879	28880.26
624.234	28649.98
624.589	28807.04
624.945	28836.87
625.3	28746.48
625.655	28821.5
626.01	28766.36
626.365	28900.82
626.72	28767.49
627.075	28624.22
627.43	28749.19
627.785	28669.87
628.14	28736.53
628.495	28809.52
628.85	28747.15
629.205	28692.01
629.559	28755.06
629.914	28568.4
630.269	28617.21
630.623	28625.8
630.978	28531.34
631.332	28725.01
631.687	28552.81
632.041	28556.65
632.396	28553.71
632.75	28461.74
633.104	28566.37
633.459	28389.42
633.813	28442.75
634.167	28403.66
634.521	28294.28
634.875	28381.06
635.229	28301.97
635.583	28170.22
635.937	28249.54
636.291	28224.68
636.645	28234.85
636.999	27954.41
637.352	28144.68
637.706	27863.56
638.06	28116.66
638.413	27836.67
638.767	27872.37
639.121	27939.04
639.474	27818.36
639.828	27855.65
640.181	27703.79
640.534	27937.23
640.888	27708.54
641.241	27583.34
641.594	27678.03
641.947	27775.65
642.301	27615.43
642.654	27695.88
643.007	27611.59
643.36	27663.34
643.713	27691.14
644.066	27697.46
644.419	27477.81
644.771	27204.37
645.124	26870.82
645.477	27043.24
645.83	26847.32
646.182	26927.99
646.535	26838.05
646.888	27011.83
647.24	26833.08
647.593	26974.77
647.945	26930.25
648.298	26897.48
648.65	26636.47
649.002	26584.05
649.355	26433.99
649.707	26343.6
650.059	26149.48
650.411	26620.66
650.763	26854.1
651.115	27285.72
651.467	27262
651.819	27242.33
652.171	27177.03
652.523	27130.7
652.875	27052.51
653.227	26945.17
653.578	27175.9
653.93	27168.89
654.282	27037.14
654.633	26942.23
654.985	27071.94
655.337	27107.42
655.688	27089.34
656.039	27216.8
656.391	26976.35
656.742	27028.1
657.094	27016.13
657.445	27024.49
657.796	26988.1
658.147	26946.75
658.498	26987.65
658.849	27180.87
659.2	27003.24
659.551	26990.14
659.902	27120.53
660.253	27030.14
660.604	27163.24
660.955	27092.28
661.306	27156.01
661.656	27042.79
662.007	27087.08
662.358	27167.76
662.708	27106.97
663.059	27138.61
663.409	26946.52
663.76	27093.41
664.11	27216.57
664.461	27200.08
664.811	27125.73
665.161	27064.49
665.511	27065.39
665.862	27159.4
666.212	27226.29
666.562	27221.32
666.912	27194.43
667.262	27155.33
667.612	27246.18
667.962	27228.55
668.312	27084.15
668.662	27335.21
669.011	27215.89
669.361	27179.29
669.711	27155.33
670.06	27020.87
670.41	27059.74
670.76	27111.72
671.109	27181.55
671.459	27013.64
671.808	27105.16
672.157	27214.31
672.507	26951.49
672.856	26975.9
673.205	27072.4
673.554	26978.16
673.904	26932.74
674.253	27203.47
674.602	26821.33
674.951	26666.98
675.3	26508.34
675.649	27012.06
675.998	26902.23
676.346	26836.02
676.695	26967.99
677.044	26871.95
677.393	26823.36
677.741	26820.42
678.09	26834.44
678.438	26662.24
678.787	26744.95
679.135	26651.16
679.484	26579.08
679.832	26736.81
680.181	26445.29
680.529	26596.48
680.877	26422.92
681.225	26369.59
681.573	26630.15
681.922	26465.41
682.27	26431.96
682.618	26348.35
682.966	26206.43
683.314	26269.7
683.661	26271.29
684.009	26101.12
684.357	26106.32
684.705	26112.87
685.053	26124.17
685.4	25901.58
685.748	25817.74
686.095	25832.88
686.443	25674.01
686.79	25744.29
687.138	25688.48
687.485	25595.82
687.832	25526.9
688.18	25563.06
688.527	25435.6
688.874	25485.77
689.221	25270.18
689.568	25109.96
689.915	25174.14
690.262	25135.05
690.609	25119
690.956	25027.7
691.303	24862.96
691.65	25017.76
691.997	24843.08
692.344	24673.59
692.69	24615.51
693.037	24707.71
693.383	24449.64
693.73	24439.47
694.077	24269.53
694.423	24174.17
694.769	24235.63
695.116	24057.33
695.462	23888.75
695.808	23833.84
696.155	23945.47
696.501	23647.85
696.847	23759.04
697.193	23475.88
697.539	23559.04
697.885	23275.89
698.231	23343.68
698.577	23285.83
698.923	23256
699.269	23058.94
699.614	22941.66
699.96	22902.56
700.306	22821.21
700.651	22760.87
700.997	22600.87
701.342	22615.34
701.688	22447.21
702.033	22443.14
702.379	22486.75
702.724	22300.32
703.069	22317.49
703.415	22065.52
703.76	22058.97
704.105	22159.98
704.45	21927.9
704.795	21877.05
705.14	21869.14
705.485	21742.37
705.83	21694.23
706.175	21767.9
706.52	21610.84
706.865	21511.41
707.209	21389.61
707.554	21282.27
707.899	21356.84
708.243	21239.78
708.588	21247.69
708.932	21009.05
709.277	21161.59
709.621	21189.61
709.966	20997.3
710.31	20979
710.654	20816.74
710.998	20828.94
711.342	20948.26
711.687	20780.36
712.031	20700.81
712.375	20670.53
712.719	20674.15
713.063	20515.96
713.407	20605.9
713.75	20567.26
714.094	20547.37
714.438	20441.38
714.782	20491.78
715.125	20364.32
715.469	20492.68
715.812	20293.59
716.156	20302.63
716.499	20235.29
716.843	20298.79
717.186	20219.02
717.53	20305.57
717.873	20262.63
718.216	20153.26
718.559	20206.81
718.902	19971.57
719.246	20016.08
719.589	20064.9
719.932	19960.94
720.275	19983.32
720.617	20012.24
720.96	19971.11
721.303	20029.64
721.646	19925.69
721.989	19990.55
722.331	19989.64
722.674	19961.17
723.016	19785.58
723.359	19826.26
723.701	19892.25
724.044	19799.14
724.386	19788.29
724.729	19816.09
725.071	19810.44
725.413	19791.23
725.755	19821.29
726.097	19816.32
726.439	19702.19
726.782	19728.63
727.124	19811.12
727.465	19729.99
727.807	19742.64
728.149	19722.76
728.491	19767.95
728.833	19777.45
729.175	19758.92
729.516	19755.98
729.858	19709.2
730.199	19694.74
730.541	19745.36
730.882	19675.75
731.224	19697.45
731.565	19713.49
731.906	19707.17
732.248	19793.26
732.589	19837.78
732.93	19842.08
733.271	19753.04
733.612	19881.62
733.953	19821.51
734.294	19776.32
734.635	19658.13
734.976	19876.43
735.317	19860.38
735.658	19843.89
735.999	19813.83
736.339	19902.41
736.68	19974.28
737.021	20042.75
737.361	19982.41
737.702	20118.91
738.042	20103.31
738.383	20115.74
738.723	20138.79
739.063	20094.73
739.404	20176.98
739.744	20209.75
740.084	20254.95
740.424	20340.14
740.764	20391.44
741.104	20529.29
741.444	20454.94
741.784	20428.73
742.124	20571.1
742.464	20614.49
742.804	20740.81
743.143	20674.82
743.483	20825.1
743.823	20920.69
744.162	20883.86
744.502	20999.56
744.841	21082.95
745.181	21235.26
745.52	21238.42
745.86	21520.9
746.199	21513.67
746.538	21588.25
746.877	21838.86
747.216	21845.87
747.556	21983.94
747.895	22272.07
748.234	22235.91
748.573	22351.16
748.911	22531.5
749.25	22690.36
749.589	22787.99
749.928	23092.84
750.267	23187.98
750.605	23338.48
750.944	23411.93
751.283	23630.23
751.621	23978.47
751.96	23985.92
752.298	24219.14
752.636	24549.3
752.975	24613.48
753.313	24856.86
753.651	25157.87
753.989	25300.69
754.327	25619.1
754.666	25561.47
755.004	25955.36
755.342	26287.11
755.679	26496.59
756.017	26605.74
756.355	26972.51
756.693	27086.63
757.031	27513.29
757.368	27607.07
757.706	27855.65
758.044	28042.31
758.381	28279.14
758.719	28553.26
759.056	28742.86
759.394	29074.6
759.731	29073.25
760.068	29468.72
760.405	29631.65
760.743	29612.44
761.08	30133.78
761.417	30196.61
761.754	30404.51
762.091	30717.95
762.428	30845.18
762.765	30990.48
763.102	31349.35
763.438	31480.42
763.775	31482
764.112	31725.15
764.449	32066.61
764.785	32223.9
765.122	32210.57
765.458	32345.7
765.795	32549.31
766.131	32758.8
766.467	32806.03
766.804	33074.95
767.14	33023.65
767.476	33243.08
767.812	33230.2
768.148	33475.84
768.485	33689.85
768.821	33533.69
769.157	33583.18
769.492	33857.98
769.828	33903.85
770.164	33883.74
770.5	33836.96
770.836	34060.01
771.171	34190.17
771.507	34076.73
771.842	34116.73
772.178	34247.12
772.513	34326.89
772.849	34346.55
773.184	34527.57
773.519	34312.43
773.855	34355.59
774.19	34476.04
774.525	34410.51
774.86	34374.8
775.195	34468.13
775.53	34502.93
775.865	34390.85
776.2	34293.67
776.535	34033.34
776.87	34225.2
777.205	34218.42
777.539	34141.14
777.874	34418.87
778.209	34033.34
778.543	34175.94
778.878	34067.24
779.212	34144.98
779.547	33941.37
779.881	34005.77
780.215	33726.91
780.55	34023.85
780.884	33704.54
781.218	33805.33
781.552	33903.85
781.886	33583.41
782.22	33615.73
782.554	33356.3
782.888	33251.89
783.222	33314.27
783.556	33107.49
783.889	33217.32
784.223	33037.21
784.557	33112.24
784.89	33246.92
785.224	33054.84
785.557	32826.59
785.891	32874.73
786.224	32795.18
786.558	32812.36
786.891	32537.56
787.224	32459.82
787.557	32453.5
787.891	32485.81
788.224	32142.77
788.557	32364.23
788.89	32227.74
789.223	32115.43
789.556	32019.84
789.888	31912.27
790.221	31879.73
790.554	31729
790.887	31833.17
791.219	31729.67
791.552	31588.89
791.884	31535.78
792.217	31494.65
792.549	31451.04
792.882	31098.96
793.214	31237.48
793.546	31218.5
793.879	31092.4
794.211	30818.74
794.543	31100.76
794.875	30858.51
795.207	30954.1
795.539	30804.5
795.871	30862.35
796.203	30662.36
796.535	30405.87
796.867	30591.4
797.198	30351.86
797.53	30363.83
797.862	30177.62
798.193	30291.29
798.525	30025.09
798.856	30338.75
799.188	29896.28
799.519	29877.75
799.85	29683.85
800.182	29838.2
800.513	29984.41
800.844	29479.34
801.175	29725.66
801.506	29705.77
801.837	29471.2
802.168	29518.21
802.499	29506.46
802.83	29302.62
803.161	29192.34
803.491	29085.68
803.822	29248.61
804.153	29091.55
804.483	28905.57
804.814	28775.85
805.145	28820.82
805.475	28855.85
805.805	28723.65
806.136	28795.51
806.466	28703.54
806.796	28726.59
807.126	28568.4
807.457	28493.6
807.787	28496.09
808.117	28366.6
808.447	28309.88
808.777	28433.49
809.107	28171.12
809.436	28005.7
809.766	28099.71
810.096	28164.8
810.426	28032.82
810.755	28013.39
811.085	27948.53
811.414	27952.82
811.744	27751.93
812.073	27754.41
812.403	27777.01
812.732	27672.61
813.061	27674.64
813.39	27519.84
813.719	27555.55
814.049	27605.94
814.378	27502.44
814.707	27467.64
815.036	27414.99
815.365	27161.66
815.693	27233.97
816.022	27170.7
816.351	27056.8
816.68	26940.87
817.008	27111.04
817.337	26781.78
817.665	26864.04
817.994	26875.34
818.322	26983.13
818.651	26803.93
818.979	26740.88
819.307	26779.75
819.636	26686.87
819.964	26530.26
820.292	26589.92
820.62	26619.07
820.948	26609.13
821.276	26852.74
821.604	26652.75
821.932	26871.04
822.259	26656.36
822.587	26676.02
822.915	26681.9
823.243	26661.78
823.57	26596.02
823.898	26764.38
824.225	26614.55
824.553	26765.28
824.88	26805.28
825.207	26840.76
825.535	26721.9
825.862	26926.86
826.189	26655.01
826.516	26967.99
826.843	26981.1
827.17	26881.21
827.497	26894.77
827.824	26890.25
828.151	26885.51
828.478	26847.54
828.805	27021.1
829.131	26916.24
829.458	26981.32
829.785	26743.14
830.111	26774.32
830.438	26956.69
830.764	26993.75
831.09	27116.01
831.417	26869.24
831.743	27050.48
832.069	26942
832.395	26951.49
832.722	27088.67
833.048	26785.85
833.374	26967.99
833.7	26840.31
834.026	26957.6
834.351	26872.85
834.677	27060.64
835.003	26856.81
835.329	27010.25
835.654	26890.93
835.98	26733.65
836.306	26913.3
836.631	26779.97
836.956	26988.78
837.282	26910.14
837.607	26619.75
837.932	26699.3
838.258	26674.21
838.583	26695.23
838.908	26576.82
839.233	26701.33
839.558	26498.4
839.883	26544.27
840.208	26370.27
840.533	26408.68
840.858	26484.16
841.182	26344.28
841.507	26426.31
841.832	26330.95
842.156	26174.79
842.481	26306.77
842.805	26118.52
843.13	26055.25
843.454	26033.55
843.778	26032.65
844.103	25961.69
844.427	26024.29
844.751	25937.28
845.075	25906.55
845.399	25732.32
845.723	25666.78
846.047	25730.51
846.371	25501.36
846.695	25408.94
847.019	25260.47
847.343	25165.33
847.666	25119.68
847.99	25057.08
848.313	24916.29
848.637	24907.93
848.96	24814.83
849.284	24842.85
849.607	24538.9
849.931	24589.75
850.254	24397.44
850.577	24239.25
850.9	24115.64
851.223	24102.53
851.546	24076.54
851.869	23895.98
852.192	24039.71
852.515	23747.74
852.838	23645.82
853.161	23756.55
853.483	23545.26
853.806	23549.1
854.129	23384.81
854.451	23413.06
854.774	23213.06
855.096	23136.68
855.419	23236.11
855.741	23126.96
856.063	22907.08
856.385	22982.79
856.708	22815.56
857.03	22800.42
857.352	22804.26
857.674	22731.72
857.996	22592.06
858.318	22392.07
858.64	22488.11
858.961	22505.28
859.283	22359.75
859.605	22306.19
859.926	22290.37
860.248	22158.85
860.57	22126.54
860.891	21990.5
861.212	21999.76
861.534	21910.72
861.855	21894
862.176	21957.5
862.498	21862.36
862.819	21860.1
863.14	21732.87
863.461	21756.15
863.782	21725.19
864.103	21559.77
864.424	21558.87
864.745	21557.74
865.065	21389.83
865.386	21341.92
865.707	21477.51
866.027	21468.93
866.348	21324.52
866.668	21318.65
866.989	21312.77
867.309	21126.11
867.63	21226.45
867.95	21240.46
868.27	21131.31
868.59	21089.05
868.91	21026.23
869.23	21051.54
869.55	20916.17
869.87	21072.1
870.19	20881.37
870.51	20906.68
870.83	20951.65
871.15	20801.83
871.469	20826.01
871.789	20926.34
872.109	20776.97
872.428	20701.04
872.748	20825.1
873.067	20702.85
873.386	20695.39
873.706	20595.05
874.025	20511.89
874.344	20453.36
874.663	20436.64
874.982	20406.81
875.301	20488.84
875.62	20225.57
875.939	20308.73
876.258	20218.56
876.577	20271.9
876.896	20250.65
877.214	20230.32
877.533	20282.52
877.852	20144.89
878.17	20150.09
878.489	20121.84
878.807	20024.45
879.125	19978.34
879.444	19852.92
879.762	19878.91
880.08	20030.77
880.398	19693.38
880.716	19889.31
881.034	19779.25
881.352	19786.03
881.67	19738.13
881.988	19738.58
882.306	19743.55
882.624	19550.33
882.941	19542.2
883.259	19479.37
883.577	19480.5
883.894	19363.45
884.212	19424.69
884.529	19364.8
884.846	19327.97
885.164	19165.48
885.481	19181.76
885.798	19235.09
886.115	19068.09
886.432	19075.32
886.75	19014.75
887.067	19040.97
887.383	18931.14
887.7	19030.12
888.017	18774.53
888.334	18876
888.651	18784.03
888.967	18780.64
889.284	18665.38
889.6	18619.51
889.917	18517.37
890.233	18516.01
890.55	18416.58
890.866	18484.37
891.182	18356.24
891.498	18342.68
891.815	18278.73
892.131	18178.39
892.447	18081.45
892.763	18101.56
893.079	18123.7
893.395	18010.26
893.71	17979.08
894.026	17942.69
894.342	17887.55
894.657	17718.97
894.973	17713.77
895.289	17737.05
895.604	17543.83
895.92	17579.99
896.235	17501.57
896.55	17539.09
896.865	17451.63
897.181	17344.06
897.496	17396.27
897.811	17242.6
898.126	16980.23
898.441	17015.03
898.756	17133.22
899.071	16930.52
899.386	16980.91
899.7	16745.44
900.015	16763.97
900.33	16550.86
900.644	16631.99
900.959	16576.17
901.273	16512.9
901.588	16452.79
901.902	16338.44
902.216	16330.53
902.531	16353.36
902.845	16273.58
903.159	16056.64
903.473	16058.22
903.787	16029.07
904.101	15907.72
904.415	15979.35
904.729	15845.8
905.042	15842.41
905.356	15734.16
905.67	15660.72
905.984	15619.14
906.297	15618.46
906.611	15411.23
906.924	15366.71
907.237	15329.65
907.551	15320.39
907.864	15253.27
908.177	15241.29
908.491	15175.99
908.804	15074.07
909.117	14964.92
909.43	14930.34
909.743	14826.16
910.056	14778.93
910.368	14845.82
910.681	14754.98
910.994	14650.35
911.307	14592.5
911.619	14426.17
911.932	14474.53
912.244	14321.32
912.557	14390.92
912.869	14235.67
913.181	14259.63
913.494	14183.24
913.806	14079.97
914.118	13971.27
914.43	13959.52
914.742	13981.21
915.054	13828.22
915.366	13792.97
915.678	13772.63
915.99	13767.66
916.302	13525.41
916.613	13571.06
916.925	13552.53
917.236	13601.56
917.548	13460.78
917.859	13378.07
918.171	13336.03
918.482	13219.88
918.794	13155.02
919.105	13089.49
919.416	13032.09
919.727	13039.54
920.038	12990.28
920.349	13012.88
920.66	12894.92
920.971	12907.8
921.282	12797.06
921.593	12725.43
921.903	12579.44
922.214	12606.11
922.525	12588.03
922.835	12507.35
923.146	12404.31
923.456	12345.55
923.767	12304.87
924.077	12301.94
924.387	12287.7
924.697	12153.01
925.008	12139.68
925.318	12077.08
925.628	12123.41
925.938	12004.09
926.248	11889.29
926.558	11853.59
926.867	11835.06
927.177	11765.45
927.487	11756.19
927.796	11570.2
928.106	11678.68
928.416	11562.75
928.725	11546.25
929.034	11457.66
929.344	11513.93
929.653	11391.68
929.962	11315.3
930.271	11235.3
930.581	11195.75
930.89	11134.06
931.199	11062.42
931.508	11101.29
931.817	11057
932.125	10993.27
932.434	11020.16
932.743	10784.46
933.051	10904.46
933.36	10802.54
933.669	10742.88
933.977	10722.99
934.286	10640.06
934.594	10602.32
934.902	10652.49
935.21	10523.23
935.519	10487.07
935.827	10550.8
936.135	10397.13
936.443	10366.85
936.751	10308.09
937.059	10340.86
937.367	10239.62
937.674	10252.95
937.982	10242.78
938.29	10198.26
938.597	10053.86
938.905	9954.65
939.213	9961.66
939.52	9951.04
939.827	9944.03
940.135	9880.31
940.442	9802.34
940.749	9798.95
941.056	9796.69
941.363	9662.23
941.67	9642.35
941.977	9616.81
942.284	9524.38
942.591	9494.55
942.898	9489.13
943.205	9514.44
943.511	9401.45
943.818	9394.89
944.125	9293.2
944.431	9191.28
944.738	9233.77
945.044	9192.87
945.35	9156.26
945.657	9107.9
945.963	9032.87
946.269	8904.06
946.575	8987.22
946.881	8956.26
947.187	8917.84
947.493	8810.73
947.799	8773.22
948.105	8735.25
948.41	8646.89
948.716	8731.63
949.022	8677.4
949.327	8611.41
949.633	8518.08
949.938	8587.46
950.244	8488.93
950.549	8413.68
950.854	8364.41
951.16	8368.71
951.465	8334.13
951.77	8304.53
952.075	8213.91
952.38	8275.38
952.685	8190.63
952.99	8125.1
953.294	8130.07
953.599	8079.22
953.904	8073.8
954.209	7985.67
954.513	7959.23
954.818	7935.72
955.122	7902.96
955.426	7896.4
955.731	7800.13
956.035	7852.34
956.339	7808.95
956.643	7749.06
956.948	7708.38
957.252	7663.64
957.556	7702.28
957.86	7607.14
958.163	7599.46
958.467	7530.99
958.771	7496.19
959.075	7497.77
959.378	7423.19
959.682	7404.89
959.985	7359.69
960.289	7287.83
960.592	7293.71
960.896	7271.56
961.199	7198.34
961.502	7257.1
961.805	7148.85
962.108	7100.94
962.411	7077.89
962.714	7079.25
963.017	7040.15
963.32	7015.07
963.623	7001.28
963.926	6974.62
964.228	6942.98
964.531	6875.41
964.833	6855.07
965.136	6794.51
965.438	6804.23
965.741	6717.22
966.043	6664.12
966.345	6686.04
966.648	6652.37
966.95	6677.23
967.252	6578.92
967.554	6529.21
967.856	6544.12
968.158	6479.49
968.46	6511.35
968.761	6454.86
969.063	6484.24
969.365	6366.05
969.666	6406.5
969.968	6265.26
970.269	6255.99
970.571	6275.65
970.872	6250.12
971.174	6208.09
971.475	6201.31
971.776	6163.79
972.077	6146.62
972.378	6111.14
972.679	6077.47
972.98	6093.74
973.281	6029.11
973.582	5981.42
973.883	5942.1
974.183	5959.05
974.484	5945.49
974.785	5896.46
975.085	5893.97
975.386	5870.02
975.686	5790.92
975.986	5782.33
976.287	5783.92
976.587	5715.44
976.887	5688.33
977.187	5691.04
977.487	5677.93
977.787	5642.45
978.087	5616.01
978.387	5538.05
978.687	5613.98
978.987	5525.17
979.286	5488.33
979.586	5467.09
979.885	5447.88
980.185	5398.62
980.484	5337.6
980.784	5339.18
981.083	5393.64
981.382	5296.7
981.682	5326.07
981.981	5300.31
982.28	5267.09
982.579	5175.57
982.878	5233.65
983.177	5226.19
983.475	5168.79
983.774	5093.09
984.073	5036.82
984.372	5051.96
984.67	5085.18
984.969	5026.65
985.267	5018.29
985.566	5007.89
985.864	4983.48
986.162	4926.99
986.461	4929.7
986.759	4911.85
987.057	4834.56
987.355	4856.71
987.653	4830.27
987.951	4806.99
988.249	4753.89
988.547	4791.17
988.844	4714.79
989.142	4714.57
989.44	4682.7
989.737	4673.66
990.035	4660.78
990.332	4625.53
990.63	4595.25
990.927	4512.31
991.224	4545.3
991.521	4496.04
991.819	4463.5
992.116	4473.67
992.413	4466.21
992.71	4451.97
993.006	4394.12
993.303	4383.05
993.6	4366.78
993.897	4353.22
994.193	4326.1
994.49	4288.36
994.787	4305.76
995.083	4228.93
995.379	4193
995.676	4183.05
995.972	4206.56
996.268	4114.81
996.565	4093.11
996.861	4092.43
997.157	4106.9
997.453	4028.26
997.749	4058.54
998.044	4022.83
998.34	3993.68
998.636	3962.27
998.932	3979.67
999.227	3940.57
999.523	3927.24
999.818	3918.2
1000.114	3878.66
1000.409	3856.06
1000.704	3859.45
1001	3826.23
1001.295	3833.23
1001.59	3780.35
1001.885	3769.51
1002.18	3687.47
1002.475	3675.27
1002.77	3712.11
1003.065	3700.81
1003.359	3641.83
1003.654	3613.8
1003.949	3639.11
1004.243	3612.22
1004.538	3554.82
1004.832	3541.94
1005.127	3511.43
1005.421	3489.06
1005.715	3479.57
1006.009	3488.61
1006.304	3441.83
1006.598	3384.43
1006.892	3402.74
1007.186	3366.35
1007.48	3322.06
1007.773	3339.46
1008.067	3295.39
1008.361	3298.33
1008.655	3268.5
1008.948	3240.93
1009.242	3248.39
1009.535	3245.9
1009.829	3233.02
1010.122	3190.31
1010.415	3143.76
1010.708	3135.17
1011.001	3132.46
1011.295	3109.64
1011.588	3096.08
1011.881	3042.52
1012.173	3059.92
1012.466	3018.56
1012.759	3007.27
1013.052	2970.2
1013.344	2942.41
1013.637	2946.48
1013.93	2895.4
1014.222	2912.58
1014.514	2899.92
1014.807	2879.36
1015.099	2844.78
1015.391	2795.75
1015.683	2786.71
1015.976	2784.22
1016.268	2783.99
1016.56	2742.87
1016.851	2724.11
1017.143	2698.57
1017.435	2700.15
1017.727	2656.99
1018.018	2699.93
1018.31	2646.82
1018.602	2617.9
1018.893	2591.91
1019.185	2598.46
1019.476	2539.03
1019.767	2552.59
1020.058	2561.18
1020.35	2532.25
1020.641	2472.36
1020.932	2436.21
1021.223	2456.32
1021.514	2433.5
1021.804	2414.74
1022.095	2426.26
1022.386	2391.91
1022.677	2381.97
1022.967	2355.31
1023.258	2318.7
1023.548	2330
1023.839	2332.03
1024.129	2272.82
1024.419	2270.34
1024.709	2252.26
1025	2222.2
1025.29	2188.98
1025.58	2197.57
1025.87	2185.14
1026.16	2182.2
1026.449	2149.89
1026.739	2162.77
1027.029	2118.25
1027.319	2133.62
1027.608	2095.43
1027.898	2102.2
1028.187	2052.26
1028.477	2063.11
1028.766	2048.87
1029.055	1970
1029.344	2009.1
1029.634	2001.42
1029.923	1972.04
1030.212	1947.86
1030.501	1943.34
1030.79	1938.14
1031.078	1917.12
1031.367	1880.74
1031.656	1889.78
1031.945	1859.95
1032.233	1867.18
1032.522	1881.19
1032.81	1860.63
1033.099	1819.05
1033.387	1828.54
1033.675	1815.66
1033.963	1783.12
1034.251	1783.79
1034.54	1747.86
1034.828	1756.68
1035.116	1716.23
1035.403	1714.42
1035.691	1739.05
1035.979	1716.23
1036.267	1690.69
1036.554	1702.89
1036.842	1673.97
1037.129	1620.86
1037.417	1645.72
1037.704	1585.38
1037.992	1607.3
1038.279	1619.28
1038.566	1600.97
1038.853	1600.97
1039.14	1600.97
