Data from 3278_FLMS001491_004.txt Node
Date: Thu Apr 19 15:16:09 BST 2018
User: hsy
Spectrometer: FLMS00149
Trigger mode: 0
Integration Time (sec): 1.000000E-2
Scans to average: 10
Electric dark correction enabled: true
Nonlinearity correction enabled: false
Boxcar width: 0
XAxis mode: Wavelengths
Number of Pixels in Spectrum: 2048
>>>>>Begin Spectral Data<<<<<
341.393	-3.04
341.776	-3.04
342.16	-3.04
342.543	-63.15
342.927	-48.01
343.31	-62.7
343.693	-65.41
344.077	-71.51
344.46	-56.82
344.843	-49.82
345.226	-56.14
345.61	-26.99
345.993	-2.13
346.376	-5.75
346.759	15.95
347.142	27.92
347.525	51.88
347.908	51.2
348.291	54.81
348.674	94.36
349.057	101.14
349.44	137.3
349.823	148.6
350.206	184.08
350.588	229.27
350.971	269.27
351.354	256.39
351.737	274.47
352.119	289.16
352.502	301.36
352.884	321.7
353.267	334.58
353.65	325.32
354.032	333.45
354.414	334.58
354.797	359.44
355.179	369.61
355.562	352.66
355.944	373
356.326	389.04
356.709	389.72
357.091	393.56
357.473	380.68
357.855	388.82
358.238	391.76
358.62	391.53
359.002	392.89
359.384	389.95
359.766	394.47
360.148	412.09
360.53	370.96
360.912	391.98
361.294	400.57
361.676	387.46
362.057	376.39
362.439	381.36
362.821	374.58
363.203	365.77
363.584	381.36
363.966	366.9
364.348	384.98
364.729	364.19
365.111	359.67
365.493	358.54
365.874	376.16
366.256	375.03
366.637	356.95
367.019	363.73
367.4	369.61
367.781	399.44
368.163	376.61
368.544	361.7
368.925	376.84
369.306	373.9
369.688	359.89
370.069	349.95
370.45	371.64
370.831	358.54
371.212	375.26
371.593	375.26
371.974	371.87
372.355	374.58
372.736	385.65
373.117	387.69
373.498	389.04
373.879	375.26
374.26	378.42
374.641	369.16
375.021	371.19
375.402	409.16
375.783	408.93
376.163	395.37
376.544	385.2
376.925	395.14
377.305	402.6
377.686	423.39
378.066	401.7
378.447	391.08
378.827	422.49
379.208	407.12
379.588	407.57
379.968	435.14
380.349	402.38
380.729	406.44
381.109	437.86
381.489	423.39
381.87	428.82
382.25	418.87
382.63	427.23
383.01	442.38
383.39	410.29
383.77	447.8
384.15	431.98
384.53	423.62
384.91	442.38
385.29	459.78
385.67	447.8
386.049	446.67
386.429	459.32
386.809	454.8
387.189	448.7
387.568	445.99
387.948	458.42
388.328	467.23
388.707	454.8
389.087	476.95
389.466	465.88
389.846	468.82
390.225	472.88
390.605	474.46
390.984	479.66
391.363	486.67
391.743	494.8
392.122	467.01
392.501	482.6
392.881	486.89
393.26	533.22
393.639	509.04
394.018	522.15
394.397	517.18
394.776	507.01
395.155	515.82
395.534	516.72
395.913	521.7
396.292	529.6
396.671	527.34
397.05	538.87
397.429	548.14
397.808	543.62
398.186	558.53
398.565	570.73
398.944	556.72
399.323	570.28
399.701	565.08
400.08	590.62
400.458	581.58
400.837	582.03
401.215	566.44
401.594	591.3
401.972	593.56
402.351	592.88
402.729	608.02
403.107	595.37
403.486	601.02
403.864	617.74
404.242	617.96
404.62	617.96
404.999	629.26
405.377	642.6
405.755	635.36
406.133	646.66
406.511	657.28
406.889	646.21
407.267	667.45
407.645	658.41
408.023	671.3
408.401	710.39
408.779	677.4
409.156	678.08
409.534	690.28
409.912	727.79
410.29	711.97
410.667	739.54
411.045	724.85
411.422	753.33
411.8	767.79
412.178	791.97
412.555	756.04
412.933	757.17
413.31	788.81
413.687	786.55
414.065	815.92
414.442	793.78
414.819	801.91
415.197	796.72
415.574	836.49
415.951	848.01
416.328	833.1
416.705	827.9
417.082	858.64
417.46	857.73
417.837	848.47
418.214	860.67
418.591	870.84
418.967	862.25
419.344	919.88
419.721	917.17
420.098	903.61
420.475	920.33
420.852	905.19
421.228	918.97
421.605	916.04
421.982	934.79
422.358	944.96
422.735	967.11
423.111	970.72
423.488	986.32
423.864	994
424.241	995.13
424.617	1009.82
424.994	1010.04
425.37	1005.75
425.746	990.84
426.123	1036.48
426.499	1058.18
426.875	1060.21
427.251	1053.66
427.627	1111.74
428.003	1106.54
428.379	1143.15
428.756	1098.18
429.132	1103.37
429.507	1127.1
429.883	1164.39
430.259	1157.61
430.635	1194.22
431.011	1177.27
431.387	1199.19
431.763	1223.15
432.138	1220.89
432.514	1232.86
432.89	1243.71
433.265	1272.41
433.641	1287.32
434.016	1292.52
434.392	1316.25
434.767	1334.1
435.143	1344.27
435.518	1358.06
435.894	1355.57
436.269	1383.59
436.644	1390.15
437.02	1428.11
437.395	1433.54
437.77	1449.58
438.145	1446.42
438.52	1461.11
438.895	1487.55
439.271	1492.52
439.646	1513.08
440.021	1509.01
440.395	1537.26
440.77	1526.87
441.145	1572.06
441.52	1548.79
441.895	1564.38
442.27	1582.23
442.645	1579.52
443.019	1621.33
443.394	1590.14
443.769	1577.94
444.143	1597.37
444.518	1653.64
444.892	1648.67
445.267	1633.08
445.641	1657.94
446.016	1670.14
446.39	1674.66
446.764	1684.83
447.139	1684.83
447.513	1710.14
447.887	1725.05
448.262	1706.3
448.636	1745.84
449.01	1777.71
449.384	1779.52
449.758	1801.21
450.132	1805.5
450.506	1806.63
450.88	1837.14
451.254	1862.9
451.628	1869.46
452.002	1900.64
452.376	1936.57
452.75	1904.71
453.123	1927.76
453.497	1987.19
453.871	1958.49
454.244	2023.58
454.618	2050.47
454.992	2098.6
455.365	2065.16
455.739	2134.31
456.112	2122.78
456.486	2166.4
456.859	2180.63
457.232	2249.56
457.606	2235.32
457.979	2294.3
458.352	2306.96
458.725	2318.03
459.099	2339.05
459.472	2403
459.845	2467.18
460.218	2446.16
460.591	2500.63
460.964	2482.55
461.337	2539.04
461.71	2544.92
462.083	2619.95
462.456	2629.44
462.829	2628.98
463.201	2687.74
463.574	2688.64
463.947	2741.75
464.32	2752.6
464.692	2767.29
465.065	2797.79
465.438	2835.31
465.81	2904.91
466.183	2872.82
466.555	2976.55
466.928	2970.22
467.3	2995.53
467.672	3049.54
468.045	3117.11
468.417	3145.13
468.789	3146.94
469.161	3212.92
469.534	3226.26
469.906	3282.53
470.278	3325.92
470.65	3363.43
471.022	3423.54
471.394	3461.05
471.766	3484.56
472.138	3528.62
472.51	3622.18
472.882	3713.7
473.253	3734.04
473.625	3755.28
473.997	3844.55
474.369	3883.64
474.74	3905.56
475.112	3983.3
475.484	4078.21
475.855	4140.13
476.227	4196.85
476.598	4240.69
476.97	4348.49
477.341	4418.32
477.713	4469.16
478.084	4553.45
478.455	4654.69
478.827	4675.26
479.198	4823.28
479.569	4796.16
479.94	4923.16
480.311	5030.5
480.682	5182.82
481.053	5283.38
481.424	5397.05
481.795	5454.45
482.166	5585.52
482.537	5706.87
482.908	5812.86
483.279	5882.68
483.65	5962.46
484.021	6146.18
484.391	6239.06
484.762	6317.7
485.133	6341.43
485.503	6444.03
485.874	6658.94
486.244	6790.91
486.615	6927.18
486.985	7084.46
487.356	7177.11
487.726	7311.35
488.097	7594.05
488.467	7615.75
488.837	7832.69
489.207	7916.08
489.578	8057.99
489.948	8274.94
490.318	8439.68
490.688	8444.2
491.058	8776.17
491.428	8878.99
491.798	9040.34
492.168	9248.7
492.538	9438.97
492.908	9607.33
493.278	9785.86
493.648	9878.74
494.017	10010.49
494.387	10254.32
494.757	10430.81
495.126	10634.42
495.496	10733.4
495.866	10932.04
496.235	11083.68
496.605	11341.75
496.974	11534.29
497.344	11781.06
497.713	11947.38
498.082	12106.02
498.452	12311.22
498.821	12535.39
499.19	12693.35
499.559	12960.46
499.928	13122.72
500.298	13307.35
500.667	13554.35
501.036	13616.49
501.405	13852.87
501.774	14077.72
502.143	14356.59
502.512	14439.52
502.88	14703.47
503.249	14823.69
503.618	15152.95
503.987	15252.38
504.356	15474.75
504.724	15736.89
505.093	15838.81
505.462	16064.11
505.83	16281.05
506.199	16594.27
506.567	16808.95
506.936	16997.42
507.304	17289.62
507.672	17374.13
508.041	17657.52
508.409	17855.93
508.777	18076.26
509.145	18184.06
509.514	18317.16
509.882	18491.62
510.25	18735.45
510.618	18945.39
510.986	18969.12
511.354	19201.88
511.722	19444.59
512.09	19730.23
512.458	19708.08
512.826	19876.44
513.193	20033.95
513.561	20147.17
513.929	20359.59
514.297	20495.86
514.664	20721.62
515.032	20765
515.4	20932.46
515.767	21128.16
516.135	21287.7
516.502	21048.84
516.869	21490.18
517.237	21567.7
517.604	21424.65
517.972	21856.05
518.339	21893.56
518.706	21948.25
519.073	22010.4
519.44	22120.45
519.808	22340.33
520.175	22298.07
520.542	22599.08
520.909	22740.32
521.276	22800.21
521.643	23111.84
522.009	23056.92
522.376	23144.6
522.743	23144.6
523.11	23540.98
523.477	23592.5
523.843	23637.47
524.21	23850.8
524.577	23897.8
524.943	24018.7
525.31	23929.89
525.676	24356.1
526.043	24444.23
526.409	24473.83
526.776	24703.21
527.142	24635.41
527.508	24730.1
527.874	24937.32
528.241	25006.93
528.607	25045.12
528.973	25092.12
529.339	25147.26
529.705	25347.26
530.071	25321.5
530.437	25418.44
530.803	25455.73
531.169	25611.88
531.535	25520.59
531.901	25627.02
532.267	25573.24
532.632	25587.7
532.998	25623.86
533.364	25637.19
533.73	25670.64
534.095	25862.5
534.461	25693.01
534.826	25812.56
535.192	25672.45
535.557	25948.6
535.923	25768.72
536.288	25838.32
536.653	25815.72
537.019	25731.88
537.384	25860.24
537.749	25749.05
538.114	25838.09
538.479	25709.51
538.845	25515.16
539.21	25507.71
539.575	25571.66
539.94	25510.64
540.305	25649.62
540.67	25390.19
541.034	25432.45
541.399	25409.63
541.764	25397.88
542.129	25320.82
542.494	25263.64
542.858	25410.31
543.223	25354.04
543.587	25245.57
543.952	25201.5
544.316	25047.83
544.681	25043.31
545.045	25265.45
545.41	25135.29
545.774	25010.09
546.138	24816.42
546.503	24999.7
546.867	24890.77
547.231	24858.46
547.595	24924.44
547.959	24837.21
548.324	24845.35
548.688	24654.85
549.052	24762.64
549.416	24706.14
549.779	24575.98
550.143	24559.26
550.507	24603.55
550.871	24611.91
551.235	24454.63
551.599	24556.54
551.962	24459.37
552.326	24504.34
552.689	24430.22
553.053	24150.45
553.417	24317.68
553.78	24425.25
554.143	24253.95
554.507	24272.71
554.87	24365.81
555.234	24383.44
555.597	24197.46
555.96	24230.45
556.323	24298.92
556.686	24187.97
557.05	24255.53
557.413	24193.62
557.776	24110.68
558.139	24274.97
558.502	24218.47
558.865	24161.75
559.228	24282.43
559.59	24190.45
559.953	24105.26
560.316	24280.39
560.679	24243.11
561.041	24241.75
561.404	24387.96
561.767	24384.34
562.129	24280.39
562.492	24489.43
562.854	24460.05
563.217	24454.63
563.579	24487.62
563.941	24504.34
564.304	24581.85
564.666	24720.61
565.028	24733.94
565.39	24668.18
565.753	24760.38
566.115	24678.12
566.477	24812.81
566.839	24797.44
567.201	24973.48
567.563	25057.32
567.925	25115.62
568.287	25151.56
568.648	25081.05
569.01	25168.96
569.372	25283.3
569.734	25276.75
570.095	25425.9
570.457	25544.31
570.819	25478.33
571.18	25426.35
571.542	25527.37
571.903	25593.35
572.265	25627.48
572.626	25651.88
572.987	25667.02
573.349	25714.93
573.71	25841.93
574.071	25770.3
574.432	25939.56
574.794	26122.15
575.155	25957.86
575.516	25948.6
575.877	26009.61
576.238	25954.47
576.599	26102.94
576.96	26146.11
577.32	26090.29
577.681	26120.8
578.042	26191.98
578.403	26158.08
578.763	26092.32
579.124	26174.58
579.485	26289.15
579.845	26287.35
580.206	26242.37
580.566	26142.72
580.927	26115.37
581.287	26199.21
581.648	26132.32
582.008	26264.75
582.368	26187.24
582.728	26166.9
583.089	26137.07
583.449	26160.57
583.809	26135.26
584.169	26197.4
584.529	25931.65
584.889	26305.2
585.249	26020.69
585.609	25964.64
585.969	26191.08
586.329	25980.69
586.688	25984.75
587.048	25969.61
587.408	25944.08
587.768	25869.73
588.127	25909.73
588.487	25816.62
588.846	25942.95
589.206	25693.01
589.565	25555.39
589.925	25891.88
590.284	25732.33
590.643	25650.53
591.003	25642.84
591.362	25848.71
591.721	25744.31
592.08	25731.43
592.44	25772.1
592.799	25598.78
593.158	25658.89
593.517	25518.78
593.876	25643.29
594.235	25611.66
594.593	25530.76
594.952	25669.28
595.311	25494.37
595.67	25481.94
596.029	25705.21
596.387	25610.08
596.746	25682.84
597.104	25553.81
597.463	25493.47
597.822	25685.1
598.18	25461.83
598.538	25571.43
598.897	25658.89
599.255	25396.97
599.613	25744.08
599.972	25506.12
600.33	25497.31
600.688	25469.97
601.046	25458.89
601.404	25650.53
601.762	25509.51
602.12	25528.04
602.478	25609.85
602.836	25541.15
603.194	25371.21
603.552	25481.72
603.91	25576.86
604.268	25617.31
604.625	25504.09
604.983	25657.53
605.341	25568.49
605.698	25577.08
606.056	25800.13
606.413	25666.34
606.771	25654.37
607.128	25718.32
607.485	25590.19
607.843	25584.31
608.2	25697.3
608.557	25813.23
608.914	25660.92
609.272	25872.67
609.629	25973.68
609.986	25966.22
610.343	25780.01
610.7	26142.04
611.057	25969.84
611.414	25902.72
611.771	26100.91
612.127	26168.03
612.484	26072.21
612.841	26228.59
613.198	26103.62
613.554	26123.73
613.911	26292.32
614.267	26335.71
614.624	26303.84
614.98	26335.48
615.337	26577.96
615.693	26579.54
616.05	26528.7
616.406	26585.64
616.762	26519.66
617.118	26491.41
617.475	26407.34
617.831	26579.32
618.187	26592.65
618.543	26663.83
618.899	26784.28
619.255	26903.83
619.611	26871.96
619.967	26878.52
620.323	26951.96
620.678	26886.2
621.034	26729.37
621.39	26835.81
621.746	26822.25
622.101	27109.47
622.457	26849.14
622.812	27130.26
623.168	27022.47
623.523	27040.55
623.879	27002.35
624.234	26852.53
624.589	26943.15
624.945	27025.41
625.3	27128.91
625.655	27070.38
626.01	26988.57
626.365	27050.72
626.72	26988.8
627.075	27023.15
627.43	26975.69
627.785	27043.48
628.14	27035.8
628.495	27044.39
628.85	27069.02
629.205	27005.74
629.559	27113.09
629.914	26972.3
630.269	27022.24
630.623	26964.39
630.978	26774.56
631.332	26977.95
631.687	26947.44
632.041	26872.87
632.396	26951.28
632.75	26804.62
633.104	26846.88
633.459	26742.93
633.813	26517.85
634.167	26727.79
634.521	26687.79
634.875	26671.06
635.229	26521.69
635.583	26448.92
635.937	26522.14
636.291	26406.44
636.645	26534.57
636.999	26424.74
637.352	26333.22
637.706	26320.56
638.06	26337.51
638.413	26346.33
638.767	26291.41
639.121	26356.72
639.474	26149.04
639.828	26144.52
640.181	26221.58
640.534	26116.73
640.888	26057.3
641.241	25921.03
641.594	26075.37
641.947	25964.19
642.301	25844.19
642.654	25975.72
643.007	25813.46
643.36	25849.39
643.713	25825.44
644.066	25951.31
644.419	25748.15
644.771	25499.12
645.124	25151.33
645.477	25352.68
645.83	25355.62
646.182	25232.23
646.535	25277.65
646.888	25351.78
647.24	25159.69
647.593	25284.66
647.945	25257.99
648.298	25093.7
648.65	25110.2
649.002	24922.64
649.355	24844.67
649.707	24703.88
650.059	24643.77
650.411	24966.7
650.763	25131.22
651.115	25686.68
651.467	25578.21
651.819	25657.08
652.171	25460.02
652.523	25353.81
652.875	25495.73
653.227	25337.09
653.578	25644.65
653.93	25591.54
654.282	25329.86
654.633	25452.57
654.985	25453.02
655.337	25353.13
655.688	25461.6
656.039	25610.98
656.391	25239.46
656.742	25439.68
657.094	25380.02
657.445	25474.03
657.796	25464.54
658.147	25345.22
658.498	25410.08
658.849	25593.13
659.2	25414.83
659.551	25428.16
659.902	25637.42
660.253	25570.53
660.604	25627.25
660.955	25498.44
661.306	25570.53
661.656	25340.7
662.007	25483.98
662.358	25511.09
662.708	25567.82
663.059	25592.22
663.409	25451.89
663.76	25608.04
664.11	25660.47
664.461	25658.66
664.811	25658.44
665.161	25657.53
665.511	25606.91
665.862	25646.68
666.212	25651.43
666.562	25593.58
666.912	25651.2
667.262	25587.02
667.612	25581.15
667.962	25673.58
668.312	25576.4
668.662	25735.95
669.011	25616.4
669.361	25619.11
669.711	25643.52
670.06	25407.82
670.41	25497.31
670.76	25406.92
671.109	25632.22
671.459	25530.08
671.808	25627.7
672.157	25663.18
672.507	25548.83
672.856	25477.88
673.205	25489.63
673.554	25568.04
673.904	25401.95
674.253	25632.45
674.602	25429.74
674.951	25123.99
675.3	25025.91
675.649	25478.33
675.998	25557.42
676.346	25398.78
676.695	25460.7
677.044	25398.78
677.393	25297.09
677.741	25339.57
678.09	25241.5
678.438	25239.24
678.787	25367.6
679.135	25382.06
679.484	25215.74
679.832	25224.77
680.181	25096.42
680.529	25152.91
680.877	25113.37
681.225	25014.61
681.573	25215.06
681.922	25010.32
682.27	24933.48
682.618	24886.93
682.966	24773.04
683.314	24796.31
683.661	24765.8
684.009	24665.47
684.357	24651.91
684.705	24462.08
685.053	24409.65
685.4	24336.44
685.748	24331.01
686.095	24314.29
686.443	24292.6
686.79	24164.24
687.138	24256.89
687.485	24139.38
687.832	24019.16
688.18	24018.7
688.527	23885.6
688.874	23926.05
689.221	23813.74
689.568	23658.49
689.915	23639.73
690.262	23714.53
690.609	23610.13
690.956	23503.69
691.303	23368.78
691.65	23203.81
691.997	23209.46
692.344	23153.19
692.69	23009.01
693.037	23099.86
693.383	22871.62
693.73	22939.86
694.077	22869.81
694.423	22794.78
694.769	22703.94
695.116	22680.43
695.462	22494.22
695.808	22346.88
696.155	22523.83
696.501	22168.81
696.847	22210.16
697.193	22075.03
697.539	22160.9
697.885	21846.78
698.231	21958.19
698.577	21906.67
698.923	21857.86
699.269	21701.48
699.614	21558.66
699.96	21546
700.306	21524.76
700.651	21347.36
700.997	21133.81
701.342	21202.06
701.688	21125.67
702.033	21153.7
702.379	21079.57
702.724	21046.13
703.069	20954.83
703.415	20808.85
703.76	20672.13
704.105	20649.75
704.45	20698.34
704.795	20563.88
705.14	20414.51
705.485	20486.14
705.83	20400.49
706.175	20420.38
706.52	20254.96
706.865	20210.9
707.209	20132.71
707.554	20153.04
707.899	20064.91
708.243	19997.34
708.588	19929.77
708.932	19808.19
709.277	19810.23
709.621	19700.63
709.966	19649.55
710.31	19763.9
710.654	19462.44
710.998	19546.51
711.342	19553.06
711.687	19440.29
712.031	19476.23
712.375	19429.22
712.719	19322.1
713.063	19287.3
713.407	19415.21
713.75	19318.72
714.094	19250.69
714.438	19191.94
714.782	19161.21
715.125	19161.66
715.469	19227.42
715.812	19054.54
716.156	18981.55
716.499	18986.52
716.843	19154.2
717.186	18977.93
717.53	19081.43
717.873	19028.33
718.216	18977.03
718.559	18799.41
718.902	18668.11
719.246	18781.33
719.589	18720.99
719.932	18729.35
720.275	18684.38
720.617	18802.12
720.96	18677.38
721.303	18887.31
721.646	18781.33
721.989	18614.1
722.331	18675.79
722.674	18621.33
723.016	18708.34
723.359	18628.56
723.701	18700.65
724.044	18666.98
724.386	18591.28
724.729	18723.48
725.071	18551.28
725.413	18675.79
725.755	18551.28
726.097	18453.65
726.439	18486.19
726.782	18492.52
727.124	18565.51
727.465	18513.99
727.807	18477.38
728.149	18499.53
728.491	18539.07
728.833	18534.56
729.175	18530.49
729.516	18401.68
729.858	18414.78
730.199	18583.82
730.541	18504.95
730.882	18506.31
731.224	18546.98
731.565	18505.86
731.906	18541.56
732.248	18604.84
732.589	18488.45
732.93	18527.78
733.271	18546.31
733.612	18598.73
733.953	18546.08
734.294	18561.22
734.635	18551.05
734.976	18751.72
735.317	18641.9
735.658	18527.78
735.999	18605.29
736.339	18706.53
736.68	18767.54
737.021	18729.8
737.361	18842.34
737.702	18912.4
738.042	18855.22
738.383	18960.08
738.723	18996.69
739.063	18975.67
739.404	19088.21
739.744	19020.87
740.084	19119.17
740.424	19247.98
740.764	19209.57
741.104	19263.58
741.444	19346.96
741.784	19395.55
742.124	19492.04
742.464	19516.22
742.804	19590.12
743.143	19699.5
743.483	19756.22
743.823	19794.18
744.162	19873.5
744.502	19991.47
744.841	20087.73
745.181	20281.18
745.52	20318.24
745.86	20429.87
746.199	20449.31
746.538	20616.99
746.877	20792.35
747.216	20899.46
747.556	21087.93
747.895	21170.64
748.234	21233.47
748.573	21381.26
748.911	21552.33
749.25	21685.88
749.589	21837.29
749.928	22098.98
750.267	22313.21
750.605	22345.98
750.944	22532.19
751.283	22812.18
751.621	23136.02
751.96	23222.12
752.298	23451.26
752.636	23632.27
752.975	23851.03
753.313	23963.11
753.651	24388.86
753.989	24401.07
754.327	24638.35
754.666	24693.04
755.004	25134.61
755.342	25488.5
755.679	25597.42
756.017	25781.37
756.355	26079.44
756.693	26302.03
757.031	26744.06
757.368	26725.3
757.706	27082.13
758.044	27193.99
758.381	27507.2
758.719	27655.67
759.056	28025.83
759.394	28221.31
759.731	28400.06
760.068	28696.55
760.405	28956.2
760.743	29159.13
761.08	29510.54
761.417	29656.07
761.754	29888.38
762.091	29976.51
762.428	30197.98
762.765	30442.49
763.102	30665.31
763.438	30718.64
763.775	30888.35
764.112	31118.63
764.449	31345.97
764.785	31634.78
765.122	31693.08
765.458	31825.73
765.795	31824.6
766.131	32190.69
766.467	32229.79
766.804	32299.16
767.14	32437.47
767.476	32706.39
767.812	32687.86
768.148	32963.78
768.485	33040.39
768.821	32985.47
769.157	33064.57
769.492	33155.19
769.828	33308.86
770.164	33337.78
770.5	33385.69
770.836	33481.51
771.171	33460.94
771.507	33629.3
771.842	33509.53
772.178	33675.63
772.513	33683.08
772.849	33662.52
773.184	33779.8
773.519	33788.84
773.855	33802.85
774.19	33931.21
774.525	33913.13
774.86	34002.85
775.195	33937.09
775.53	33912.91
775.865	33785.23
776.2	33762.4
776.535	33725.12
776.87	33750.88
777.205	33682.41
777.539	33674.27
777.874	33766.7
778.209	33733.7
778.543	33762.4
778.878	33503.2
779.212	33754.49
779.547	33491.45
779.881	33599.92
780.215	33416.2
780.55	33460.04
780.884	33146.15
781.218	33366.48
781.552	33407.38
781.886	33369.87
782.22	33173.04
782.554	33198.58
782.888	32966.94
783.222	32865.25
783.556	32817.8
783.889	32866.61
784.223	32660.74
784.557	32685.14
784.89	32736.89
785.224	32517.92
785.557	32472.95
785.891	32408.54
786.224	32468.65
786.558	32467.75
786.891	32286.74
787.224	32079.06
787.557	32061.66
787.891	31997.93
788.224	31830.48
788.557	31851.27
788.89	31894.43
789.223	31727.43
789.556	31677.26
789.888	31538.96
790.221	31465.51
790.554	31396.14
790.887	31409.47
791.219	31311.17
791.552	31201.57
791.884	31157.27
792.217	31140.78
792.549	30978.52
792.882	30819.2
793.214	30651.07
793.546	30813.55
793.879	30661.02
794.211	30312.55
794.543	30666.21
794.875	30608.14
795.207	30318.2
795.539	30399.1
795.871	30436.84
796.203	30336.73
796.535	30068.26
796.867	30006.34
797.198	29935.61
797.53	29896.29
797.862	29849.06
798.193	29903.52
798.525	29748.5
798.856	29847.03
799.188	29591.89
799.519	29440.03
799.85	29397.32
800.182	29411.56
800.513	29539.69
800.844	29042.75
801.175	29337.89
801.506	29263.76
801.837	29128.17
802.168	29071.23
802.499	28986.03
802.83	28832.14
803.161	28838.46
803.491	28944.22
803.822	28890.89
804.153	28612.26
804.483	28638.47
804.814	28426.95
805.145	28500.39
805.475	28566.83
805.805	28414.97
806.136	28331.59
806.466	28289.55
806.796	28258.37
807.126	28153.29
807.457	28142.44
807.787	28158.48
808.117	28066.73
808.447	28074.19
808.777	28017.47
809.107	27771.37
809.436	27679.63
809.766	27780.64
810.096	27764.14
810.426	27777.7
810.755	27645.05
811.085	27596.92
811.414	27548.33
811.744	27480.53
812.073	27483.25
812.403	27332.29
812.732	27320.54
813.061	27407.32
813.39	27154.22
813.719	27108.11
814.049	27304.72
814.378	27206.64
814.707	26943.15
815.036	27183.82
815.365	26995.12
815.693	26884.17
816.022	26914.45
816.351	26796.26
816.68	26695.24
817.008	26764.4
817.337	26456.61
817.665	26488.7
817.994	26540.67
818.322	26582.25
818.651	26517.4
818.979	26441.69
819.307	26462.71
819.636	26461.13
819.964	26283.96
820.292	26429.49
820.62	26368.02
820.948	26403.27
821.276	26496.38
821.604	26321.47
821.932	26418.19
822.259	26385.87
822.587	26374.8
822.915	26343.39
823.243	26430.84
823.57	26368.02
823.898	26509.03
824.225	26454.8
824.553	26408.47
824.88	26470.62
825.207	26516.27
825.535	26470.17
825.862	26448.25
826.189	26377.96
826.516	26675.13
826.843	26753.32
827.17	26704.74
827.497	26621.8
827.824	26742.25
828.151	26806.43
828.478	26533.89
828.805	26807.78
829.131	26693.89
829.458	26681.91
829.785	26464.74
830.111	26707.22
830.438	26795.81
830.764	26688.01
831.09	26668.35
831.417	26647.34
831.743	26745.64
832.069	26608.02
832.395	26766.2
832.722	26598.75
833.048	26540.9
833.374	26722.81
833.7	26670.16
834.026	26657.73
834.351	26700.22
834.677	26687.11
835.003	26571.63
835.329	26725.07
835.654	26645.3
835.98	26442.14
836.306	26594
836.631	26314.01
836.956	26572.76
837.282	26605.98
837.607	26492.31
837.932	26500.45
838.258	26443.5
838.583	26367.34
838.908	26268.81
839.233	26308.59
839.558	26063.4
839.883	26178.65
840.208	26060.91
840.533	26132.55
840.858	26147.01
841.182	26058.65
841.507	26097.29
841.832	25832.67
842.156	25951.08
842.481	25965.32
842.805	25846.23
843.13	25767.59
843.454	25797.19
843.778	25647.59
844.103	25688.72
844.427	25476.52
844.751	25590.87
845.075	25532.34
845.399	25455.73
845.723	25248.73
846.047	25297.09
846.371	25163.76
846.695	25024.55
847.019	25090.99
847.343	24890.55
847.666	24919.02
847.99	24723.32
848.313	24641.51
848.637	24635.64
848.96	24553.61
849.284	24491.01
849.607	24347.74
849.931	24277.23
850.254	24173.73
850.577	24029.1
850.9	23778.03
851.223	23954.75
851.546	23695.32
851.869	23574.2
852.192	23813.51
852.515	23370.13
852.838	23445.16
853.161	23329.23
853.483	23266.18
853.806	23152.74
854.129	23127.43
854.451	23099.18
854.774	22948.22
855.096	22813.54
855.419	22735.57
855.741	22774.9
856.063	22666.2
856.385	22604.5
856.708	22512.76
857.03	22515.24
857.352	22413.78
857.674	22385.3
857.996	22340.33
858.318	22191.18
858.64	22196.61
858.961	22124.52
859.283	22145.99
859.605	21869.83
859.926	21984.63
860.248	21953.45
860.57	21925.65
860.891	21844.3
861.212	21777.18
861.534	21610.86
861.855	21657.86
862.176	21670.97
862.498	21647.92
862.819	21754.58
863.14	21560.92
863.461	21461.94
863.782	21419.45
864.103	21320.92
864.424	21332.67
864.745	21334.03
865.065	21276.18
865.386	21184.2
865.707	21231.21
866.027	21255.61
866.348	21193.47
866.668	21086.8
866.989	20937.43
867.309	20883.87
867.63	20894.04
867.95	21051.33
868.27	20830.54
868.59	20880.93
868.91	20852.01
869.23	20873.02
869.55	20753.71
869.87	20792.57
870.19	20654.95
870.51	20681.17
870.83	20739.47
871.15	20489.31
871.469	20452.7
871.789	20532.24
872.109	20591
872.428	20436.2
872.748	20539.25
873.067	20326.37
873.386	20361.17
873.706	20414.51
874.025	20330.21
874.344	20239.37
874.663	20332.7
874.982	20220.39
875.301	20280.95
875.62	20089.32
875.939	20059.03
876.258	20039.6
876.577	19985.14
876.896	19989.21
877.214	20001.41
877.533	20012.71
877.852	19893.39
878.17	19980.17
878.489	19902.43
878.807	19748.76
879.125	19756.22
879.444	19785.82
879.762	19691.81
880.08	19818.36
880.398	19663.56
880.716	19705.15
881.034	19534.98
881.352	19593.28
881.67	19545.15
881.988	19506.28
882.306	19441.65
882.624	19353.29
882.941	19301.54
883.259	19378.37
883.577	19327.53
883.894	19222.67
884.212	19013.41
884.529	19144.26
884.846	19047.08
885.164	18991.94
885.481	18961.66
885.798	18936.8
886.115	18855.22
886.432	18837.82
886.75	18852.74
887.067	18889.12
887.383	18730.03
887.7	18692.52
888.017	18577.94
888.334	18569.13
888.651	18470.83
888.967	18499.08
889.284	18371.17
889.6	18438.06
889.917	18294.11
890.233	18446.42
890.55	18309.02
890.866	18205.3
891.182	18151.06
891.498	18038.07
891.815	17971.18
892.131	17840.56
892.447	17949.71
892.763	17848.92
893.079	17831.52
893.395	17786.55
893.71	17715.59
894.026	17647.35
894.342	17675.14
894.657	17494.81
894.973	17500.68
895.289	17533.9
895.604	17483.51
895.92	17249.39
896.235	17257.75
896.55	17280.58
896.865	17246.23
897.181	17251.65
897.496	17101.15
897.811	17045.55
898.126	16937.99
898.441	16892.34
898.756	16802.62
899.071	16709.97
899.386	16683.08
899.7	16670.88
900.015	16512.91
900.33	16421.62
900.644	16463.2
900.959	16396.08
901.273	16283.09
901.588	16214.39
901.902	16109.08
902.216	16055.75
902.531	16091.23
902.845	16043.77
903.159	15887.39
903.473	15834.51
903.787	15862.99
904.101	15792.25
904.415	15754.97
904.729	15668.19
905.042	15596.33
905.356	15608.08
905.67	15515.65
905.984	15458.7
906.297	15432.72
906.611	15274.75
906.924	15298.48
907.237	15265.71
907.551	15194.3
907.864	15089.9
908.177	15033.86
908.491	15098.94
908.804	14888.1
909.117	14788.21
909.43	14747.76
909.743	14713.41
910.056	14638.39
910.368	14553.19
910.681	14577.6
910.994	14550.25
911.307	14421.67
911.619	14248.11
911.932	14355
912.244	14174.44
912.557	14259.19
912.869	13967.22
913.181	14025.75
913.494	14047.89
913.806	13927.44
914.118	13892.64
914.43	13793.89
914.742	13746.21
915.054	13669.6
915.366	13581.01
915.678	13544.18
915.99	13474.58
916.302	13496.5
916.613	13371.98
916.925	13411.75
917.236	13305.99
917.548	13273
917.859	13228.48
918.171	13177.41
918.482	13088.82
918.794	13031.42
919.105	12978.99
919.416	12910.07
919.727	12867.81
920.038	12865.1
920.349	12733.8
920.66	12727.25
920.971	12732
921.282	12678.89
921.593	12555.5
921.903	12466.24
922.214	12470.99
922.525	12420.82
922.835	12402.06
923.146	12343.53
923.456	12239.13
923.767	12157.77
924.077	12201.39
924.387	12094.5
924.697	12034.16
925.008	12027.83
925.318	12002.52
925.628	11939.93
925.938	11868.06
926.248	11781.96
926.558	11664.23
926.867	11680.95
927.177	11676.88
927.487	11646.15
927.796	11552.82
928.106	11544.23
928.416	11493.84
928.725	11473.5
929.034	11388.98
929.344	11342.88
929.653	11338.36
929.962	11185.14
930.271	11167.07
930.581	11095.88
930.89	11046.62
931.199	11012.49
931.508	10954.87
931.817	10940.63
932.125	10953.06
932.434	10779.96
932.743	10802.1
933.051	10647.3
933.36	10729.11
933.669	10640.07
933.977	10576.12
934.286	10524.37
934.594	10482.11
934.902	10488.89
935.21	10405.05
935.519	10377.26
935.827	10381.32
936.135	10264.94
936.443	10227.43
936.751	10169.13
937.059	10238.73
937.367	10144.49
937.674	10158.5
937.982	10038.51
938.29	10060.65
938.597	9947.44
938.905	9849.36
939.213	9855.46
939.52	9815.01
939.827	9862.92
940.135	9711.96
940.442	9726.88
940.749	9698.4
941.056	9720.32
941.363	9505.87
941.67	9495.7
941.977	9481.23
942.284	9386.77
942.591	9381.35
942.898	9381.35
943.205	9370.28
943.511	9300.22
943.818	9265.19
944.125	9161.02
944.431	9161.92
944.738	9116.05
945.044	9034.01
945.35	9090.28
945.657	8957.18
945.963	8955.15
946.269	9005.31
946.575	8905.88
946.881	8822.49
947.187	8863.4
947.493	8745.43
947.799	8676.06
948.105	8751.31
948.41	8623.18
948.716	8621.6
949.022	8578.43
949.327	8564.2
949.633	8474.25
949.938	8448.27
950.244	8483.97
950.549	8453.46
950.854	8372.56
951.16	8359
951.465	8317.87
951.77	8226.13
952.075	8190.65
952.38	8177.09
952.685	8164.43
952.99	8030.88
953.294	8071.33
953.599	8005.34
953.904	7961.73
954.209	7874.5
954.513	7913.37
954.818	7885.8
955.122	7879.69
955.426	7805.12
955.731	7762.63
956.035	7782.97
956.339	7711.79
956.643	7621.4
956.948	7636.54
957.252	7606.93
957.556	7562.87
957.86	7465.69
958.163	7555.41
958.467	7462.3
958.771	7467.95
959.075	7419.59
959.378	7337.79
959.682	7339.14
959.985	7303.21
960.289	7221.86
960.592	7203.33
960.896	7190.9
961.199	7217.56
961.502	7173.05
961.805	7152.93
962.108	7073.84
962.411	7006.5
962.714	6978.25
963.017	6979.38
963.32	7005.59
963.623	6938.93
963.926	6834.52
964.228	6884.92
964.531	6798.82
964.833	6852.15
965.136	6751.59
965.438	6765.37
965.741	6695.54
966.043	6620.07
966.345	6646.96
966.648	6592.04
966.95	6563.12
967.252	6581.2
967.554	6517.92
967.856	6456.91
968.158	6466.17
968.46	6424.59
968.761	6385.27
969.063	6373.29
969.365	6335.78
969.666	6270.47
969.968	6242
970.269	6265.5
970.571	6244.03
970.872	6187.31
971.174	6138.5
971.475	6119.06
971.776	6110.93
972.077	6066.18
972.378	6091.27
972.679	6046.75
972.98	6017.37
973.281	5931.04
973.582	5960.42
973.883	5891.05
974.183	5866.87
974.484	5886.3
974.785	5777.15
975.085	5762.24
975.386	5793.42
975.686	5754.1
975.986	5760.43
976.287	5700.99
976.587	5580.55
976.887	5654.22
977.187	5636.59
977.487	5592.07
977.787	5549.59
978.087	5547.1
978.387	5495.35
978.687	5537.38
978.987	5518.17
979.286	5408.57
979.586	5418.97
979.885	5408.8
980.185	5353.88
980.484	5375.8
980.784	5286.99
981.083	5318.18
981.382	5286.99
981.682	5289.48
981.981	5291.74
982.28	5199.76
982.579	5185.3
982.878	5141.23
983.177	5118.41
983.475	5135.13
983.774	5075.25
984.073	5061.69
984.372	5007.91
984.67	5019.43
984.969	4976.04
985.267	4962.03
985.566	4952.54
985.864	4909.6
986.162	4888.81
986.461	4864.41
986.759	4818.31
987.057	4791.87
987.355	4797.29
987.653	4730.62
987.951	4745.77
988.249	4752.09
988.547	4710.96
988.844	4698.08
989.142	4672.09
989.44	4638.88
989.737	4581.48
990.035	4570.18
990.332	4553.91
990.63	4561.82
990.927	4516.17
991.224	4506.22
991.521	4441.59
991.819	4454.25
992.116	4466.68
992.413	4411.99
992.71	4389.39
993.006	4371.76
993.303	4357.3
993.6	4345.78
993.897	4246.34
994.193	4260.58
994.49	4289.05
994.787	4231.2
995.083	4196.17
995.379	4214.25
995.676	4189.62
995.972	4153.24
996.268	4168.83
996.565	4101.26
996.861	4082.96
997.157	4072.34
997.453	4030.3
997.749	4029.85
998.044	3945.11
998.34	3970.42
998.636	3966.12
998.932	3902.85
999.227	3905.11
999.523	3892.68
999.818	3866.47
1000.114	3833.25
1000.409	3841.38
1000.704	3771.55
1001	3774.94
1001.295	3761.38
1001.59	3720.71
1001.885	3715.28
1002.18	3689.3
1002.475	3697.88
1002.77	3696.75
1003.065	3627.6
1003.359	3609.07
1003.654	3562.07
1003.949	3556.87
1004.243	3565.68
1004.538	3520.03
1004.832	3537.21
1005.127	3497.21
1005.421	3452.24
1005.715	3427.38
1006.009	3421.51
1006.304	3449.53
1006.598	3362.07
1006.892	3376.76
1007.186	3288.4
1007.48	3330.89
1007.773	3244.56
1008.067	3291.34
1008.361	3259.48
1008.655	3235.75
1008.948	3194.17
1009.242	3171.34
1009.535	3160.27
1009.829	3135.86
1010.122	3150.1
1010.415	3098.8
1010.708	3095.41
1011.001	3062.87
1011.295	3049.09
1011.588	3040.05
1011.881	3024.45
1012.173	3002.76
1012.466	2944.23
1012.759	2953.5
1013.052	2941.52
1013.344	2938.58
1013.637	2908.98
1013.93	2846.38
1014.222	2857
1014.514	2852.03
1014.807	2816.55
1015.099	2819.94
1015.391	2789.43
1015.683	2754.63
1015.976	2776.78
1016.268	2725.25
1016.56	2744.69
1016.851	2696.78
1017.143	2701.07
1017.435	2643
1017.727	2626.27
1018.018	2624.69
1018.31	2627.18
1018.602	2587.63
1018.893	2559.83
1019.185	2549.89
1019.476	2542.89
1019.767	2471.47
1020.058	2519.38
1020.35	2458.37
1020.641	2457.01
1020.932	2401.19
1021.223	2463.11
1021.514	2437.8
1021.804	2416.33
1022.095	2390.35
1022.386	2348.54
1022.677	2369.1
1022.967	2326.62
1023.258	2273.74
1023.548	2311.03
1023.839	2283.23
1024.129	2302.21
1024.419	2243.46
1024.709	2211.82
1025	2224.7
1025.29	2170.47
1025.58	2210.01
1025.87	2137.7
1026.16	2158.26
1026.449	2136.12
1026.739	2104.7
1027.029	2107.42
1027.319	2127.08
1027.608	2088.21
1027.898	2052.05
1028.187	2024.93
1028.477	2031.49
1028.766	2011.37
1029.055	1986.97
1029.344	2003.01
1029.634	1977.02
1029.923	1977.93
1030.212	1938.83
1030.501	1934.31
1030.79	1908.33
1031.078	1929.34
1031.367	1882.56
1031.656	1879.4
1031.945	1880.53
1032.233	1848.21
1032.522	1814.99
1032.81	1816.58
1033.099	1782
1033.387	1821.1
1033.675	1785.16
1033.963	1756.47
1034.251	1782.23
1034.54	1731.83
1034.828	1763.24
1035.116	1701.55
1035.403	1706.97
1035.691	1705.17
1035.979	1704.72
1036.267	1654.09
1036.554	1655
1036.842	1660.65
1037.129	1635.11
1037.417	1632.4
1037.704	1596.02
1037.992	1605.28
1038.279	1578.62
1038.566	1598.05
1038.853	1598.05
1039.14	1598.05
