Data from 3278_FLMS001491_006.txt Node
Date: Thu Apr 19 15:16:16 BST 2018
User: hsy
Spectrometer: FLMS00149
Trigger mode: 0
Integration Time (sec): 1.000000E-2
Scans to average: 10
Electric dark correction enabled: true
Nonlinearity correction enabled: false
Boxcar width: 0
XAxis mode: Wavelengths
Number of Pixels in Spectrum: 2048
>>>>>Begin Spectral Data<<<<<
341.393	-4.97
341.776	-4.97
342.16	-4.97
342.543	-71.18
342.927	-72.77
343.31	-71.18
343.693	-65.31
344.077	-68.47
344.46	-39.77
344.843	-42.26
345.226	-53.33
345.61	-41.13
345.993	-16.72
346.376	0.68
346.759	3.84
347.142	32.54
347.525	25.54
347.908	51.98
348.291	69.38
348.674	101.47
349.057	112.77
349.44	123.61
349.823	143.73
350.206	176.94
350.588	225.08
350.971	261.69
351.354	253.33
351.737	274.57
352.119	286.77
352.502	287
352.884	304.62
353.267	314.34
353.65	339.88
354.032	332.42
354.414	340.78
354.797	354.34
355.179	376.49
355.562	379.88
355.944	354.11
356.326	365.64
356.709	383.27
357.091	372.65
357.473	378.75
357.855	382.14
358.238	376.04
358.62	365.87
359.002	399.99
359.384	391.18
359.766	389.82
360.148	387.79
360.53	383.72
360.912	389.14
361.294	390.5
361.676	376.26
362.057	376.71
362.439	381.91
362.821	376.04
363.203	357.28
363.584	391.85
363.966	375.58
364.348	358.86
364.729	382.59
365.111	367.9
365.493	369.03
365.874	385.75
366.256	376.94
366.637	348.92
367.019	354.34
367.4	381.01
367.781	380.1
368.163	366.77
368.544	374
368.925	379.65
369.306	366.54
369.688	368.13
370.069	373.78
370.45	372.42
370.831	383.04
371.212	373.78
371.593	374
371.974	362.25
372.355	369.93
372.736	375.13
373.117	387.33
373.498	379.43
373.879	368.8
374.26	358.18
374.641	365.41
375.021	369.26
375.402	409.03
375.783	416.03
376.163	424.17
376.544	406.77
376.925	405.41
377.305	434.11
377.686	381.46
378.066	390.27
378.447	419.65
378.827	432.31
379.208	398.41
379.588	388.01
379.968	412.19
380.349	422.81
380.729	423.94
381.109	426.66
381.489	405.87
381.87	439.08
382.25	434.11
382.63	424.4
383.01	423.27
383.39	433.66
383.77	407.67
384.15	424.62
384.53	459.2
384.91	458.97
385.29	450.16
385.67	450.38
386.049	468.01
386.429	456.03
386.809	463.49
387.189	475.47
387.568	456.71
387.948	472.53
388.328	479.08
388.707	463.94
389.087	486.77
389.466	490.16
389.846	468.69
390.225	498.97
390.605	473.66
390.984	482.93
391.363	483.38
391.743	505.98
392.122	519.53
392.501	510.95
392.881	520.21
393.26	518.4
393.639	521.57
394.018	518.4
394.397	546.65
394.776	515.92
395.155	530.38
395.534	545.52
395.913	564.05
396.292	542.58
396.671	547.56
397.05	535.81
397.429	569.48
397.808	563.15
398.186	563.15
398.565	581
398.944	575.35
399.323	583.94
399.701	575.8
400.08	580.32
400.458	596.37
400.837	581
401.215	590.27
401.594	592.98
401.972	620.55
402.351	585.07
402.729	615.58
403.107	635.01
403.486	633.2
403.864	617.38
404.242	639.53
404.62	633.43
404.999	636.37
405.377	650.38
405.755	646.76
406.133	674.33
406.511	669.36
406.889	668.01
407.267	676.37
407.645	680.89
408.023	698.29
408.401	717.04
408.779	718.63
409.156	735.35
409.534	732.86
409.912	754.33
410.29	747.55
410.667	764.27
411.045	774.89
411.422	782.58
411.8	798.17
412.178	789.81
412.555	795.23
412.933	817.15
413.31	823.26
413.687	833.2
414.065	832.07
414.442	845.4
414.819	847.66
415.197	849.47
415.574	861.9
415.951	896.7
416.328	876.14
416.705	891.05
417.082	893.54
417.46	896.93
417.837	898.73
418.214	919.52
418.591	917.26
418.967	935.57
419.344	918.39
419.721	918.85
420.098	956.13
420.475	933.53
420.852	937.6
421.228	958.39
421.605	992.74
421.982	1000.88
422.358	995.91
422.735	1013.98
423.111	991.39
423.488	1060.31
423.864	1060.31
424.241	1039.07
424.617	1030.71
424.994	1052.18
425.37	1059.18
425.746	1043.36
426.123	1074.55
426.499	1092.4
426.875	1103.47
427.251	1148.9
427.627	1142.12
428.003	1152.51
428.379	1161.55
428.756	1159.74
429.132	1203.58
429.507	1201.55
429.883	1226.86
430.259	1243.13
430.635	1240.87
431.011	1242.68
431.387	1284.71
431.763	1294.88
432.138	1300.76
432.514	1334.2
432.89	1331.04
433.265	1364.71
433.641	1343.24
434.016	1387.31
434.392	1408.78
434.767	1425.95
435.143	1412.62
435.518	1455.33
435.894	1446.97
436.269	1466.63
436.644	1491.71
437.02	1503.01
437.395	1493.97
437.77	1548.43
438.145	1569.68
438.52	1553.41
438.895	1578.49
439.271	1585.27
439.646	1620.07
440.021	1608.55
440.395	1609.45
440.77	1619.39
441.145	1643.57
441.52	1673.18
441.895	1669.79
442.27	1703.01
442.645	1675.44
443.019	1714.08
443.394	1727.64
443.769	1729.45
444.143	1728.32
444.518	1749.11
444.892	1745.49
445.267	1765.6
445.641	1778.94
446.016	1809.22
446.39	1813.29
446.764	1778.03
447.139	1822.78
447.513	1821.87
447.887	1835.43
448.262	1844.02
448.636	1900.97
449.01	1865.71
449.384	1916.79
449.758	1912.94
450.132	1963.79
450.506	1927.18
450.88	1958.14
451.254	1965.37
451.628	2005.82
452.002	2022.09
452.376	2028.42
452.75	2067.29
453.123	2085.37
453.497	2126.05
453.871	2138.47
454.244	2161.98
454.618	2197.91
454.992	2238.81
455.365	2240.17
455.739	2292.14
456.112	2272.26
456.486	2318.81
456.859	2330.11
457.232	2381.18
457.606	2398.36
457.979	2437
458.352	2512.25
458.725	2502.31
459.099	2520.39
459.472	2558.12
459.845	2604.45
460.218	2613.72
460.591	2644.45
460.964	2671.34
461.337	2723.32
461.71	2793.37
462.083	2795.86
462.456	2831.56
462.829	2803.32
463.201	2876.99
463.574	2889.64
463.947	2916.99
464.32	2963.76
464.692	2993.59
465.065	3002.63
465.438	3056.87
465.81	3080.82
466.183	3145.23
466.555	3168.5
466.928	3215.51
467.3	3234.27
467.672	3276.75
468.045	3336.18
468.417	3365.79
468.789	3373.7
469.161	3471.32
469.534	3497.31
469.906	3518.1
470.278	3561.49
470.65	3607.14
471.022	3667.02
471.394	3759.45
471.766	3759.45
472.138	3846.68
472.51	3933.23
472.882	3935.49
473.253	4001.25
473.625	4059.33
473.997	4184.52
474.369	4184.75
474.74	4218.87
475.112	4272.2
475.484	4396.04
475.855	4431.07
476.227	4514.91
476.598	4599.43
476.97	4648.92
477.341	4815.92
477.713	4843.94
478.084	4930.94
478.455	5026.31
478.827	5080.32
479.198	5244.16
479.569	5206.87
479.94	5371.38
480.311	5480.08
480.682	5603.47
481.053	5715.56
481.424	5858.6
481.795	5875.78
482.166	6040.29
482.537	6079.16
482.908	6253.62
483.279	6359.38
483.65	6469.43
484.021	6593.27
484.391	6739.48
484.762	6850.67
485.133	6910.78
485.503	6998.01
485.874	7245.23
486.244	7317.55
486.615	7467.83
486.985	7582.85
487.356	7706.69
487.726	7878.21
488.097	8118.88
488.467	8247.24
488.837	8376.73
489.207	8549.83
489.578	8805.64
489.948	8839.54
490.318	9016.26
490.688	9099.2
491.058	9354.56
491.428	9538.05
491.798	9667.54
492.168	9945.5
492.538	10021.21
492.908	10267.75
493.278	10419.16
493.648	10667.06
494.017	10770.56
494.387	11007.39
494.757	11098.01
495.126	11375.75
495.496	11499.13
495.866	11807.83
496.235	11913.59
496.605	12195.16
496.974	12308.15
497.344	12529.39
497.713	12690.74
498.082	12913.33
498.452	13122.59
498.821	13389.48
499.19	13500.66
499.559	13747.44
499.928	13876.7
500.298	14163.7
500.667	14395.33
501.036	14562.55
501.405	14664.25
501.774	14953.05
502.143	15158.47
502.512	15299.03
502.88	15656.09
503.249	15736.76
503.618	16012.91
503.987	16023.53
504.356	16373.58
504.724	16637.08
505.093	16774.02
505.462	16915.26
505.83	17224.86
506.199	17414.91
506.567	17752.75
506.936	17794.11
507.304	18114.78
507.672	18272.06
508.041	18461.21
508.409	18611.26
508.777	18908.88
509.145	19097.8
509.514	19251.02
509.882	19573.04
510.25	19622.99
510.618	19831.34
510.986	19779.37
511.354	20121.96
511.722	20343.42
512.09	20548.84
512.458	20542.06
512.826	20789.28
513.193	20946.34
513.561	21047.13
513.929	21237.86
514.297	21478.98
514.664	21663.84
515.032	21778.41
515.4	21961.91
515.767	22048.46
516.135	22187.21
516.502	22058.18
516.869	22568.22
517.237	22639.86
517.604	22492.52
517.972	22880.75
518.339	22947.87
518.706	23089.34
519.073	23127.53
519.44	23186.51
519.808	23436.9
520.175	23557.8
520.542	23635.99
520.909	23791.92
521.276	23759.38
521.643	24033.72
522.009	24203.21
522.376	24245.69
522.743	24383.99
523.11	24619.69
523.477	24843.19
523.843	24780.59
524.21	25005.44
524.577	25122.28
524.943	25123.63
525.31	25223.74
525.676	25481.14
526.043	25601.13
526.409	25593
526.776	25952.76
527.142	25906.44
527.508	25956.15
527.874	26219.2
528.241	26284.73
528.607	26322.47
528.973	26469.81
529.339	26387.33
529.705	26638.62
530.071	26646.31
530.437	26767.43
530.803	26834.32
531.169	26891.95
531.535	26954.09
531.901	26953.42
532.267	26971.95
532.632	27119.74
532.998	27162.9
533.364	27102.34
533.73	27175.1
534.095	27275.67
534.461	27155.22
534.826	27320.86
535.192	27230.02
535.557	27348.43
535.923	27364.7
536.288	27261.88
536.653	27397.25
537.019	27292.39
537.384	27276.34
537.749	27316.8
538.114	27243.58
538.479	27160.64
538.845	27298.49
539.21	27100.76
539.575	27242
539.94	27100.76
540.305	27209.45
540.67	27076.35
541.034	27161.77
541.399	27137.37
541.764	27050.59
542.129	26977.82
542.494	27072.51
542.858	26999.52
543.223	27002.91
543.587	27074.09
543.952	26842.46
544.316	26840.88
544.681	26674.33
545.045	26765.17
545.41	26842.01
545.774	26509.36
546.138	26726.3
546.503	26622.35
546.867	26659.19
547.231	26663.48
547.595	26529.7
547.959	26669.58
548.324	26529.92
548.688	26467.1
549.052	26526.53
549.416	26364.5
549.779	26350.27
550.143	26335.35
550.507	26370.83
550.871	26325.86
551.235	26256.94
551.599	26454.9
551.962	26292.19
552.326	26212.64
552.689	26224.4
553.053	26100.78
553.417	26110.95
553.78	26238.63
554.143	26200.67
554.507	26211.51
554.87	26152.53
555.234	26357.5
555.597	25948.02
555.96	26100.33
556.323	26090.16
556.686	26095.59
557.05	26188.24
557.413	26106.21
557.776	26065.3
558.139	26138.75
558.502	26225.07
558.865	26058.3
559.228	26335.58
559.59	26329.48
559.953	26333.77
560.316	26454.22
560.679	26372.87
561.041	26435.01
561.404	26545.06
561.767	26515.46
562.129	26417.16
562.492	26567.44
562.854	26586.87
563.217	26698.73
563.579	26656.7
563.941	26668.68
564.304	26700.31
564.666	26831.84
565.028	26793.87
565.39	26844.94
565.753	27000.19
566.115	26926.3
566.477	27189.57
566.839	27205.61
567.201	27393.63
567.563	27212.17
567.925	27449.22
568.287	27321.32
568.648	27460.29
569.01	27594.98
569.372	27784.81
569.734	27486.73
570.095	27738.03
570.457	27852.83
570.819	27838.59
571.18	27726.5
571.542	28085.59
571.903	27963.33
572.265	27996.55
572.626	28116.77
572.987	28067.28
573.349	28199.26
573.71	28369.88
574.071	28396.77
574.432	28464.79
574.794	28667.27
575.155	28566.25
575.516	28569.42
575.877	28550.44
576.238	28475.41
576.599	28664.78
576.96	28608.97
577.32	28614.84
577.681	28722.86
578.042	28747.27
578.403	28662.3
578.763	28749.98
579.124	28659.59
579.485	28868.17
579.845	29021.84
580.206	28769.87
580.566	28913.36
580.927	28823.42
581.287	28942.97
581.648	28811.67
582.008	28922.4
582.368	28896.42
582.728	29005.11
583.089	28689.19
583.449	28839.92
583.809	28743.65
584.169	28779.13
584.529	28758.34
584.889	28905.45
585.249	28594.95
585.609	28622.98
585.969	28738.91
586.329	28575.75
586.688	28539.59
587.048	28660.26
587.408	28598.12
587.768	28599.02
588.127	28554.5
588.487	28444.68
588.846	28711.34
589.206	28344.79
589.565	28370.55
589.925	28502.08
590.284	28419.82
590.643	28273.83
591.003	28384.56
591.362	28640.38
591.721	28396.99
592.08	28456.43
592.44	28450.78
592.799	28402.19
593.158	28341.4
593.517	28335.07
593.876	28374.85
594.235	28207.62
594.593	28248.3
594.952	28351.57
595.311	28313.38
595.67	28286.71
596.029	28466.82
596.387	28376.2
596.746	28401.97
597.104	28076.32
597.463	28133.72
597.822	28303.21
598.18	28174.85
598.538	28279.26
598.897	28386.82
599.255	28216.89
599.613	28463.88
599.972	28267.05
600.33	28316.09
600.688	28256.43
601.046	28209.43
601.404	28477.67
601.762	28317.45
602.12	28493.49
602.478	28304.11
602.836	28393.83
603.194	28172.59
603.552	28362.42
603.91	28178.47
604.268	28327.16
604.625	28390.44
604.983	28490.32
605.341	28130.33
605.698	28501.85
606.056	28484.45
606.413	28399.03
606.771	28606.03
607.128	28528.74
607.485	28401.51
607.843	28406.71
608.2	28526.26
608.557	28610.55
608.914	28554.28
609.272	28649.19
609.629	28783.2
609.986	28789.3
610.343	28713.14
610.7	28949.97
611.057	28922.4
611.414	28855.51
611.771	28869.3
612.127	29071.55
612.484	29099.57
612.841	29034.94
613.198	28916.75
613.554	29043.3
613.911	29141.61
614.267	29243.98
614.624	29054.15
614.98	29264.54
615.337	29302.73
615.693	29279
616.05	29327.14
616.406	29504.76
616.762	29475.84
617.118	29447.59
617.475	29450.75
617.831	29589.05
618.187	29500.69
618.543	29644.64
618.899	29725.32
619.255	29812.78
619.611	29776.84
619.967	29911.3
620.323	29816.84
620.678	29733.46
621.034	29751.08
621.39	29875.82
621.746	29778.43
622.101	30085.31
622.457	29856.16
622.812	30050.96
623.168	30074.46
623.523	29997.4
623.879	30116.72
624.234	29996.73
624.589	30121.24
624.945	30046.22
625.3	30191.75
625.655	30103.62
626.01	30089.6
626.365	30130.51
626.72	30094.58
627.075	30048.02
627.43	30047.57
627.785	29950.4
628.14	29952.88
628.495	29970.06
628.85	30063.39
629.205	29973.9
629.559	30005.54
629.914	30042.6
630.269	29902.49
630.623	29966.44
630.978	29792.44
631.332	29875.37
631.687	29848.71
632.041	29899.55
632.396	29794.7
632.75	29810.52
633.104	29801.7
633.459	29636.06
633.813	29669.05
634.167	29727.13
634.521	29676.73
634.875	29711.08
635.229	29677.86
635.583	29566
635.937	29469.96
636.291	29471.32
636.645	29368.95
636.999	29243.98
637.352	29295.5
637.706	29217.54
638.06	29283.98
638.413	29336.63
638.767	29145.9
639.121	29236.52
639.474	29021.16
639.828	29049.41
640.181	29144.09
640.534	29041.95
640.888	28906.81
641.241	28811.67
641.594	28902.06
641.947	29017.77
642.301	28785.46
642.654	28787.27
643.007	28769.64
643.36	28878.56
643.713	28754.05
644.066	28802.18
644.419	28745.68
644.771	28322.65
645.124	28252.14
645.477	28206.49
645.83	28149.77
646.182	28090.79
646.535	28009.21
646.888	28027.96
647.24	28104.8
647.593	28201.74
647.945	28039.94
648.298	28077.68
648.65	27795.43
649.002	27659.84
649.355	27505.72
649.707	27273.86
650.059	27219.4
650.411	27712.49
650.763	27915.88
651.115	28430.66
651.467	28311.12
651.819	28486.26
652.171	28289.65
652.523	28212.14
652.875	28290.1
653.227	28182.54
653.578	28377.56
653.93	28253.04
654.282	28082.88
654.633	28157.9
654.985	28254.4
655.337	28303.21
655.688	28164.68
656.039	28242.2
656.391	27926.27
656.742	28053.73
657.094	28181.41
657.445	28080.39
657.796	28154.29
658.147	28153.84
658.498	28067.51
658.849	28203.78
659.2	28136.21
659.551	28031.58
659.902	28230.9
660.253	28099.37
660.604	28310.89
660.955	28113.39
661.306	28265.7
661.656	28176.21
662.007	28251.01
662.358	28237.68
662.708	28276.54
663.059	28331.01
663.409	28048.75
663.76	28339.37
664.11	28435.64
664.461	28245.58
664.811	28358.58
665.161	28293.27
665.511	28200.39
665.862	28302.76
666.212	28300.72
666.562	28202.2
666.912	28244.46
667.262	28180.05
667.612	28272.93
667.962	28280.84
668.312	28365.58
668.662	28429.76
669.011	28220.5
669.361	28313.15
669.711	28282.65
670.06	28272.02
670.41	28251.69
670.76	28155.87
671.109	28169.43
671.459	28222.31
671.808	28257.34
672.157	28305.7
672.507	28114.06
672.856	28103.89
673.205	28253.49
673.554	28195.42
673.904	28120.39
674.253	28351.57
674.602	28111.58
674.951	27688.09
675.3	27685.15
675.649	28048.98
675.998	28059.83
676.346	28102.09
676.695	28121.29
677.044	27872.49
677.393	28010.11
677.741	28003.56
678.09	27898.25
678.438	27945.93
678.787	27969.21
679.135	27761.76
679.484	27662.1
679.832	27713.62
680.181	27645.37
680.529	27710.91
680.877	27522.89
681.225	27570.12
681.573	27594.75
681.922	27588.65
682.27	27376.91
682.618	27423.46
682.966	27278.83
683.314	27315.44
683.661	27270.7
684.009	27279.28
684.357	27187.76
684.705	27015.33
685.053	27111.6
685.4	27001.78
685.748	26915.22
686.095	26895.34
686.443	26625.06
686.79	26625.06
687.138	26728.11
687.485	26619.41
687.832	26533.54
688.18	26532.41
688.527	26465.97
688.874	26425.07
689.221	26529.7
689.568	26259.65
689.915	26148.92
690.262	26192.98
690.609	25995.25
690.956	26089.94
691.303	25846.78
691.65	25783.5
691.997	25734.46
692.344	25710.28
692.69	25507.35
693.037	25459.22
693.383	25278.88
693.73	25261.71
694.077	25214.25
694.423	25210.41
694.769	25064.88
695.116	24991.89
695.462	24873.02
695.808	24855.17
696.155	24874.83
696.501	24583.99
696.847	24740.82
697.193	24449.98
697.539	24536.08
697.885	24378.79
698.231	24263.54
698.577	24182.87
698.923	24181.29
699.269	24084.79
699.614	23935.19
699.96	23798.02
700.306	23815.64
700.651	23662.43
700.997	23612.94
701.342	23558.7
701.688	23424.24
702.033	23334.08
702.379	23397.35
702.724	23246.62
703.069	23157.36
703.415	23032.84
703.76	22985.84
704.105	23005.04
704.45	22935.22
704.795	22763.47
705.14	22714.66
705.485	22614.77
705.83	22574.32
706.175	22534.55
706.52	22531.61
706.865	22389.92
707.209	22481.44
707.554	22206.65
707.899	22384.5
708.243	22136.37
708.588	22144.05
708.932	21994.9
709.277	22111.73
709.621	21962.59
709.966	21857.28
710.31	21966.2
710.654	21776.83
710.998	21762.14
711.342	21752.87
711.687	21610.51
712.031	21570.28
712.375	21520.56
712.719	21491.41
713.063	21511.52
713.407	21542.48
713.75	21530.28
714.094	21432.88
714.438	21396.73
714.782	21467.91
715.125	21222.27
715.469	21300
715.812	21272.66
716.156	21082.84
716.499	21178.43
716.843	21161.03
717.186	21088.71
717.53	21273.56
717.873	21164.87
718.216	21112.89
718.559	21084.19
718.902	20935.27
719.246	20919.9
719.589	20897.98
719.932	20780.24
720.275	20855.95
720.617	20727.36
720.96	20773.69
721.303	20911.31
721.646	20896.85
721.989	20791.32
722.331	20888.26
722.674	20764.43
723.016	20716.07
723.359	20700.25
723.701	20767.36
724.044	20712.9
724.386	20643.75
724.729	20700.7
725.071	20757.87
725.413	20651.21
725.755	20702.73
726.097	20495.51
726.439	20481.04
726.782	20527.14
727.124	20672.68
727.465	20576.41
727.807	20414.38
728.149	20535.05
728.491	20419.35
728.833	20685.11
729.175	20594.49
729.516	20522.17
729.858	20495.05
730.199	20630.64
730.541	20579.35
730.882	20450.76
731.224	20622.73
731.565	20523.53
731.906	20628.38
732.248	20689.17
732.589	20445.11
732.93	20525.56
733.271	20536.41
733.612	20592
733.953	20583.41
734.294	20499.35
734.635	20581.83
734.976	20675.39
735.317	20628.16
735.658	20746.57
735.999	20655.73
736.339	20673.58
736.68	20678.33
737.021	20753.35
737.361	20824.31
737.702	20880.13
738.042	20860.02
738.383	20908.6
738.723	20809.85
739.063	20847.36
739.404	21056.4
739.744	21030.18
740.084	20948.15
740.424	21096.85
740.764	21118.77
741.104	21259.78
741.444	21210.06
741.784	21324.86
742.124	21375.26
742.464	21481.92
742.804	21440.11
743.143	21552.88
743.483	21685.31
743.823	21597.62
744.162	21742.03
744.502	21842.36
744.841	21784.29
745.181	22042.36
745.52	21989.25
745.86	22158.97
746.199	22389.92
746.538	22416.36
746.877	22692.96
747.216	22723.92
747.556	22801.43
747.895	23004.59
748.234	23097.47
748.573	23275.77
748.911	23327.75
749.25	23475.77
749.589	23643.67
749.928	23910.33
750.267	24010.44
750.605	24132.92
750.944	24415.86
751.283	24647.04
751.621	24813.81
751.96	24900.14
752.298	25182.39
752.636	25362.5
752.975	25602.26
753.313	25657.4
753.651	26162.7
753.989	26224.17
754.327	26556.14
754.666	26573.09
755.004	26926.52
755.342	27164.94
755.679	27385.04
756.017	27466.4
756.355	27938.47
756.693	28074.97
757.031	28493.04
757.368	28579.81
757.706	28819.81
758.044	29085.79
758.381	29274.26
758.719	29505.66
759.056	29906.11
759.394	30081.92
759.731	30183.61
760.068	30333.44
760.405	30597.16
760.743	30883.48
761.08	31134.1
761.417	31369.8
761.754	31452.28
762.091	31743.57
762.428	31861.08
762.765	31948.31
763.102	32246.84
763.438	32447.96
763.775	32469.65
764.112	32800.04
764.449	33025.12
764.785	33150.54
765.122	33239.58
765.458	33361.83
765.795	33587.82
766.131	33775.84
766.467	34016.05
766.804	33869.17
767.14	34089.27
767.476	34146.9
767.812	34355.48
768.148	34635.02
768.485	34770.16
768.821	34577.17
769.157	34835.69
769.492	34913.88
769.828	34988.23
770.164	34808.12
770.5	34920.66
770.836	35166.08
771.171	35242.01
771.507	35178.96
771.842	35150.49
772.178	35428.22
772.513	35257.38
772.849	35332.18
773.184	35376.24
773.519	35477.49
773.855	35293.54
774.19	35484.26
774.525	35371.73
774.86	35568.33
775.195	35606.52
775.53	35543.47
775.865	35365.62
776.2	35340.09
776.535	35265.29
776.87	35391.84
777.205	35309.81
777.539	35257.6
777.874	35468.22
778.209	35130.38
778.543	35356.13
778.878	35279.52
779.212	35289.47
779.547	35081.34
779.881	35127.66
780.215	34917.73
780.55	35050.15
780.884	34837.28
781.218	34812.64
781.552	34994.11
781.886	34761.35
782.22	34729.71
782.554	34517.51
782.888	34542.59
783.222	34552.31
783.556	34323.17
783.889	34272.55
784.223	34109.61
784.557	34127.69
784.89	34294.47
785.224	34050.86
785.557	33875.04
785.891	33909.39
786.224	33855.38
786.558	33795.5
786.891	33713.69
787.224	33494.03
787.557	33450.42
787.891	33488.16
788.224	33265.11
788.557	33376.75
788.89	33251.33
789.223	33262.63
789.556	32958.68
789.888	33070.32
790.221	32991
790.554	32862.41
790.887	32772.25
791.219	32739.93
791.552	32663.1
791.884	32513.5
792.217	32599.82
792.549	32488.86
792.882	32153.5
793.214	32177.91
793.546	32152.37
793.879	32105.6
794.211	31885.49
794.543	32039.84
794.875	31893.85
795.207	31924.36
795.539	31811.59
795.871	31731.37
796.203	31739.05
796.535	31386.75
796.867	31532.05
797.198	31304.94
797.53	31246.86
797.862	31159.63
798.193	31236.24
798.525	31197.82
798.856	31184.04
799.188	30950.6
799.519	30877.15
799.85	30761.23
800.182	30711.06
800.513	30885.06
800.844	30500.89
801.175	30617.73
801.506	30578.86
801.837	30389.03
802.168	30467.9
802.499	30420.22
802.83	30239.43
803.161	30079.21
803.491	30246.66
803.822	30189.71
804.153	30116.04
804.483	29847.35
804.814	29566.68
805.145	29744.08
805.475	29752.21
805.805	29673.34
806.136	29708.37
806.466	29585.44
806.796	29621.37
807.126	29333.47
807.457	29379.79
807.787	29390.41
808.117	29208.95
808.447	29242.62
808.777	29269.74
809.107	28950.65
809.436	28990.88
809.766	28985.68
810.096	28990.2
810.426	28898
810.755	28906.58
811.085	28829.3
811.414	28831.78
811.744	28575.97
812.073	28634.73
812.403	28569.42
812.732	28404.22
813.061	28598.8
813.39	28465.92
813.719	28347.96
814.049	28498.46
814.378	28427.73
814.707	28188.86
815.036	28193.38
815.365	28232.48
815.693	28062.09
816.022	28011.24
816.351	27961.75
816.68	27821.87
817.008	28044.46
817.337	27832.49
817.665	27722.21
817.994	27722.43
818.322	27878.36
818.651	27700.97
818.979	27691.02
819.307	27673.85
819.636	27551.37
819.964	27558.82
820.292	27538.26
820.62	27511.82
820.948	27573.51
821.276	27694.41
821.604	27551.37
821.932	27773.51
822.259	27670.91
822.587	27588.65
822.915	27540.97
823.243	27567.86
823.57	27489.22
823.898	27567.18
824.225	27515.21
824.553	27565.15
824.88	27732.15
825.207	27716.79
825.535	27582.55
825.862	27645.6
826.189	27509.79
826.516	27785.48
826.843	27729.21
827.17	27748.87
827.497	27732.38
827.824	27734.41
828.151	27757.01
828.478	27680.63
828.805	27914.75
829.131	27797.69
829.458	27748.65
829.785	27615.55
830.111	27852.83
830.438	27839.49
830.764	27886.05
831.09	27827.29
831.417	27727.63
831.743	28018.47
832.069	27722.89
832.395	27664.13
832.722	27769.67
833.048	27713.17
833.374	27853.05
833.7	27739.61
834.026	27815.54
834.351	27727.41
834.677	27803.11
835.003	27782.77
835.329	27728.31
835.654	27613.74
835.98	27583.68
836.306	27663.68
836.631	27529.67
836.956	27820.96
837.282	27596.79
837.607	27659.16
837.932	27552.72
838.258	27591.14
838.583	27588.43
838.908	27360.86
839.233	27473.85
839.558	27352.05
839.883	27275.22
840.208	27149.57
840.533	27258.72
840.858	27259.4
841.182	27153.18
841.507	27257.36
841.832	27117.03
842.156	27100.76
842.481	27039.06
842.805	26942.34
843.13	26886.98
843.454	26921.55
843.778	26810.37
844.103	26762.01
844.427	26809.92
844.751	26818.73
845.075	26705.74
845.399	26642.92
845.723	26435.01
846.047	26420.55
846.371	26291.29
846.695	26217.39
847.019	26287.67
847.343	26008.81
847.666	25927.91
847.99	25821.02
848.313	25718.42
848.637	25824.63
848.96	25699.89
849.284	25650.62
849.607	25510.06
849.931	25306
850.254	25403.85
850.577	25060.36
850.9	24899.91
851.223	24976.97
851.546	24875.96
851.869	24636.64
852.192	24911.89
852.515	24560.26
852.838	24396.87
853.161	24451.56
853.483	24297.89
853.806	24334.73
854.129	24188.06
854.451	24141.96
854.774	24052.25
855.096	23863.33
855.419	23769.77
855.741	23855.64
856.063	23770.9
856.385	23672.37
856.708	23642.99
857.03	23440.29
857.352	23494.75
857.674	23411.14
857.996	23284.36
858.318	23161.88
858.64	23214.08
858.961	23127.08
859.283	22999.4
859.605	22993.75
859.926	22905.16
860.248	22789.46
860.57	22733.41
860.891	22672.85
861.212	22643.7
861.534	22691.15
861.855	22539.29
862.176	22677.37
862.498	22615.9
862.819	22627.43
863.14	22388.56
863.461	22371.39
863.782	22361.9
864.103	22371.39
864.424	22156.03
864.745	22214.78
865.065	22060.21
865.386	22083.04
865.707	22200.32
866.027	22112.64
866.348	21990.83
866.668	22008.01
866.989	21971.63
867.309	21786.09
867.63	21861.35
867.95	21781.8
868.27	21696.15
868.59	21833.55
868.91	21709.26
869.23	21734.12
869.55	21600.34
869.87	21741.12
870.19	21545.42
870.51	21458.64
870.83	21499.1
871.15	21302.72
871.469	21385.2
871.789	21536.16
872.109	21422.71
872.428	21230.18
872.748	21445.09
873.067	21355.6
873.386	21241.25
873.706	21260.46
874.025	21143.62
874.344	21032.44
874.663	21180.91
874.982	21040.12
875.301	21015.72
875.62	20990.18
875.939	20870.86
876.258	20954.25
876.577	20904.08
876.896	20722.62
877.214	20891.2
877.533	20842.84
877.852	20792.67
878.17	20663.19
878.489	20667.03
878.807	20639.23
879.125	20575.73
879.444	20518.56
879.762	20548.61
880.08	20672
880.398	20357.88
880.716	20480.37
881.034	20434.94
881.352	20422.29
881.67	20332.8
881.988	20359.92
882.306	20165.12
882.624	20253.7
882.941	20255.29
883.259	20160.6
883.577	20138.68
883.894	19985.69
884.212	20049.19
884.529	19916.31
884.846	19832.02
885.164	19794.28
885.481	19712.25
885.798	19859.82
886.115	19598.13
886.432	19721.97
886.75	19684
887.067	19585.25
887.383	19549.77
887.7	19584.8
888.017	19368.98
888.334	19556.1
888.651	19361.3
888.967	19372.37
889.284	19196.11
889.6	19220.51
889.917	19087.86
890.233	19106.62
890.55	19114.07
890.866	19067.97
891.182	18967.64
891.498	18840.41
891.815	18769.45
892.131	18706.63
892.447	18749.79
892.763	18626.4
893.079	18644.71
893.395	18570.81
893.71	18552.05
894.026	18432.96
894.342	18366.75
894.657	18255.79
894.973	18192.06
895.289	18138.96
895.604	18091.28
895.92	18050.6
896.235	17929.92
896.55	17906.87
896.865	17900.55
897.181	17827.1
897.496	17926.31
897.811	17713.21
898.126	17618.97
898.441	17579.2
898.756	17576.04
899.071	17437.73
899.386	17515.92
899.7	17344.63
900.015	17207.91
900.33	17233.22
900.644	17171.98
900.959	17146.22
901.273	17018.76
901.588	16958.65
901.902	16874.36
902.216	16802.95
902.531	16690.86
902.845	16628.49
903.159	16624.2
903.473	16544.42
903.787	16513.69
904.101	16433.47
904.415	16399.34
904.729	16310.98
905.042	16208.84
905.356	16194.6
905.67	16196.18
905.984	16169.29
906.297	16047.26
906.611	15999.35
906.924	15877.1
907.237	15862.63
907.551	15753.03
907.864	15726.14
908.177	15749.19
908.491	15639.59
908.804	15499.71
909.117	15405.24
909.43	15290.9
909.743	15213.84
910.056	15231.24
910.368	15177.68
910.681	15153.27
910.994	15088.64
911.307	14974.75
911.619	14834.41
911.932	14889.33
912.244	14751.48
912.557	14681.42
912.869	14689.78
913.181	14581.54
913.494	14560.52
913.806	14528.88
914.118	14469.68
914.43	14389
914.742	14300.41
915.054	14220.87
915.366	14141.78
915.678	14144.49
915.99	14140.87
916.302	14119.85
916.613	13920.54
916.925	13904.95
917.236	13873.08
917.548	13794.67
917.859	13756.47
918.171	13758.06
918.482	13590.15
918.794	13553.32
919.105	13511.74
919.416	13460.89
919.727	13442.36
920.038	13329.14
920.349	13288.69
920.66	13283.04
920.971	13252.53
921.282	13096.15
921.593	13098.86
921.903	13041.92
922.214	12969.38
922.525	12874.46
922.835	12921.47
923.146	12742.72
923.456	12799.21
923.767	12749.72
924.077	12638.99
924.387	12701.59
924.697	12500.46
925.008	12486.45
925.318	12475.15
925.628	12465.66
925.938	12345.66
926.248	12304.08
926.558	12256.85
926.867	12202.84
927.177	12140.47
927.487	12013.24
927.796	12069.29
928.106	11944.32
928.416	11951.32
928.725	11941.61
929.034	11890.31
929.344	11835.17
929.653	11804.44
929.962	11630.43
930.271	11636.76
930.581	11613.93
930.89	11541.39
931.199	11456.65
931.508	11388.18
931.817	11395.86
932.125	11437.67
932.434	11364.9
932.743	11171.68
933.051	11134.17
933.36	11157.45
933.669	11067.51
933.977	10988.41
934.286	11013.72
934.594	10982.31
934.902	10893.05
935.21	10795.87
935.519	10818.25
935.827	10783.45
936.135	10648.53
936.443	10612.15
936.751	10575.77
937.059	10589.78
937.367	10494.64
937.674	10524.7
937.982	10497.8
938.29	10374.87
938.597	10344.36
938.905	10281.54
939.213	10285.38
939.52	10201.09
939.827	10295.32
940.135	10153.18
940.442	10003.8
940.749	10040.87
941.056	10033.86
941.363	9951.38
941.67	9923.58
941.977	9864.83
942.284	9828.67
942.591	9778.27
942.898	9720.2
943.205	9757.71
943.511	9664.83
943.818	9710.25
944.125	9604.04
944.431	9508.22
944.738	9501.67
945.044	9422.8
945.35	9434.55
945.657	9365.18
945.963	9363.6
946.269	9247.44
946.575	9258.06
946.881	9170.38
947.187	9181.23
947.493	9108.24
947.799	9149.82
948.105	9039.99
948.41	8986.88
948.716	8939.2
949.022	8904.17
949.327	8929.48
949.633	8784.18
949.938	8762.93
950.244	8849.26
950.549	8763.84
950.854	8666.66
951.16	8662.82
951.465	8620.34
951.77	8568.14
952.075	8503.05
952.38	8454.24
952.685	8462.83
952.99	8474.58
953.294	8385.99
953.599	8315.26
953.904	8273.23
954.209	8254.25
954.513	8321.59
954.818	8260.57
955.122	8173.34
955.426	8084.53
955.731	8099.22
956.035	8074.59
956.339	8023.52
956.643	7975.38
956.948	7941.03
957.252	7867.59
957.556	7869.4
957.86	7825.33
958.163	7809.51
958.467	7832.34
958.771	7729.97
959.075	7709.63
959.378	7670.08
959.682	7622.62
959.985	7553.93
960.289	7497.66
960.592	7482.74
960.896	7446.13
961.199	7497.88
961.502	7440.03
961.805	7449.52
962.108	7332.69
962.411	7333.37
962.714	7228.28
963.017	7239.36
963.32	7210.88
963.623	7189.87
963.926	7180.6
964.228	7125.69
964.531	7156.65
964.833	7118.91
965.136	7041.85
965.438	6981.74
965.741	6946.48
966.043	6921.17
966.345	6850.89
966.648	6942.64
966.95	6826.04
967.252	6807.5
967.554	6810.22
967.856	6740.16
968.158	6681.86
968.46	6709.43
968.761	6625.81
969.063	6596.21
969.365	6614.06
969.666	6555.31
969.968	6499.04
970.269	6453.84
970.571	6500.85
970.872	6473.5
971.174	6383.56
971.475	6351.02
971.776	6356.44
972.077	6313.28
972.378	6244.36
972.679	6212.04
972.98	6221.76
973.281	6213.62
973.582	6191.93
973.883	6148.31
974.183	6120.74
974.484	6078.71
974.785	6066.96
975.085	6077.81
975.386	6075.09
975.686	5957.36
975.986	5941.76
976.287	5897.47
976.587	5864.93
976.887	5866.06
977.187	5834.87
977.487	5828.55
977.787	5795.55
978.087	5777.48
978.387	5713.07
978.687	5694.77
978.987	5687.76
979.286	5689.79
979.586	5688.89
979.885	5586.52
980.185	5563.24
980.484	5546.52
980.784	5532.51
981.083	5560.53
981.382	5480.76
981.682	5494.32
981.981	5404.83
982.28	5369.8
982.579	5355.11
982.878	5347.88
983.177	5309.24
983.475	5327.32
983.774	5201.22
984.073	5250.94
984.372	5205.51
984.67	5210.48
984.969	5164.16
985.267	5111.5
985.566	5134.78
985.864	5079.64
986.162	5057.27
986.461	5002.58
986.759	5009.36
987.057	4963.71
987.355	4966.65
987.653	4903.6
987.951	4898.4
988.249	4925.97
988.547	4890.72
988.844	4897.95
989.142	4812.3
989.44	4838.06
989.737	4793.32
990.035	4809.82
990.332	4730.27
990.63	4738.63
990.927	4687.33
991.224	4735.69
991.521	4631.06
991.819	4607.11
992.116	4596.04
992.413	4568.69
992.71	4567.34
993.006	4556.26
993.303	4514.23
993.6	4466.1
993.897	4469.94
994.193	4434.46
994.49	4375.93
994.787	4366.21
995.083	4385.42
995.379	4347.23
995.676	4321.24
995.972	4268.81
996.268	4295.48
996.565	4238.08
996.861	4197.4
997.157	4147.46
997.453	4198.99
997.749	4187.23
998.044	4146.56
998.34	4144.07
998.636	4109.5
998.932	4093.23
999.227	4042.15
999.523	4015.94
999.818	4022.95
1000.114	3942.72
1000.409	3953.12
1000.704	3937.07
1001	3912.21
1001.295	3899.11
1001.59	3895.49
1001.885	3862.95
1002.18	3831.31
1002.475	3825.66
1002.77	3786.12
1003.065	3772.78
1003.359	3793.12
1003.654	3688.04
1003.949	3701.6
1004.243	3666.8
1004.538	3664.76
1004.832	3645.1
1005.127	3622.73
1005.421	3601.49
1005.715	3577.76
1006.009	3607.81
1006.304	3538.44
1006.598	3508.83
1006.892	3497.54
1007.186	3467.25
1007.48	3444.43
1007.773	3422.28
1008.067	3406.24
1008.361	3342.51
1008.655	3356.07
1008.948	3309.74
1009.242	3340.25
1009.535	3323.75
1009.829	3273.36
1010.122	3260.25
1010.415	3214.83
1010.708	3231.55
1011.001	3232.91
1011.295	3183.42
1011.588	3166.92
1011.881	3143.19
1012.173	3123.31
1012.466	3126.02
1012.759	3144.32
1013.052	3073.37
1013.344	3039.24
1013.637	3021.39
1013.93	3022.75
1014.222	2989.3
1014.514	2920.38
1014.807	2944.56
1015.099	2880.83
1015.391	2914.73
1015.683	2872.01
1015.976	2876.31
1016.268	2836.54
1016.56	2827.72
1016.851	2821.39
1017.143	2795.86
1017.435	2780.94
1017.727	2745.69
1018.018	2728.29
1018.31	2724
1018.602	2673.6
1018.893	2672.92
1019.185	2654.85
1019.476	2627.28
1019.767	2619.82
1020.058	2593.6
1020.35	2590.89
1020.641	2527.84
1020.932	2526.49
1021.223	2530.33
1021.514	2496.88
1021.804	2481.29
1022.095	2451.01
1022.386	2483.78
1022.677	2447.17
1022.967	2408.75
1023.258	2389.09
1023.548	2354.06
1023.839	2387.28
1024.129	2365.14
1024.419	2333.05
1024.709	2347.73
1025	2304.12
1025.29	2286.49
1025.58	2254.18
1025.87	2230.9
1026.16	2247.17
1026.449	2211.02
1026.739	2233.61
1027.029	2191.13
1027.319	2136.89
1027.608	2179.6
1027.898	2146.38
1028.187	2112.26
1028.477	2123.79
1028.766	2081.53
1029.055	2091.7
1029.344	2079.95
1029.634	2029.33
1029.923	2019.16
1030.212	2022.55
1030.501	1991.59
1030.79	1956.11
1031.078	1953.39
1031.367	1919.72
1031.656	1913.4
1031.945	1945.94
1032.233	1901.19
1032.522	1877.69
1032.81	1874.75
1033.099	1897.13
1033.387	1860.97
1033.675	1848.76
1033.963	1818.26
1034.251	1826.17
1034.54	1803.79
1034.828	1805.15
1035.116	1774.87
1035.403	1763.57
1035.691	1735.77
1035.979	1727.86
1036.267	1708.43
1036.554	1712.27
1036.842	1699.84
1037.129	1705.27
1037.417	1673.85
1037.704	1662.56
1037.992	1665.94
1038.279	1590.01
1038.566	1625.04
1038.853	1625.04
1039.14	1625.04
