Data from 3278_FLMS001491_008.txt Node
Date: Thu Apr 19 15:16:22 BST 2018
User: hsy
Spectrometer: FLMS00149
Trigger mode: 0
Integration Time (sec): 1.000000E-2
Scans to average: 10
Electric dark correction enabled: true
Nonlinearity correction enabled: false
Boxcar width: 0
XAxis mode: Wavelengths
Number of Pixels in Spectrum: 2048
>>>>>Begin Spectral Data<<<<<
341.393	-23.4
341.776	-23.4
342.16	-23.4
342.543	-59.11
342.927	-71.31
343.31	-55.04
343.693	-67.92
344.077	-85.55
344.46	-45.1
344.843	-68.15
345.226	-26.79
345.61	-27.02
345.993	4.62
346.376	-31.76
346.759	6.43
347.142	26.99
347.525	47.78
347.908	54.56
348.291	83.03
348.674	87.1
349.057	96.82
349.44	129.14
349.823	129.81
350.206	173.88
350.588	226.53
350.971	219.08
351.354	251.39
351.737	277.15
352.119	290.26
352.502	292.07
352.884	303.59
353.267	309.7
353.65	308.11
354.032	333.88
354.414	328.9
354.797	335.68
355.179	348.34
355.562	345.4
355.944	355.57
356.326	372.07
356.709	360.99
357.091	366.87
357.473	387.89
357.855	390.37
358.238	375.68
358.62	355.34
359.002	382.91
359.384	385.17
359.766	386.98
360.148	386.3
360.53	391.95
360.912	375.46
361.294	353.08
361.676	371.39
362.057	382.91
362.439	376.81
362.821	392.4
363.203	372.74
363.584	382.24
363.966	372.07
364.348	371.84
364.729	361.67
365.111	363.03
365.493	375.46
365.874	344.27
366.256	370.94
366.637	373.87
367.019	343.37
367.4	369.35
367.781	328.45
368.163	356.93
368.544	356.25
368.925	368.68
369.306	380.2
369.688	354.44
370.069	373.42
370.45	360.32
370.831	366.64
371.212	372.97
371.593	364.84
371.974	372.29
372.355	358.28
372.736	373.2
373.117	366.19
373.498	371.84
373.879	365.51
374.26	348.11
374.641	372.52
375.021	360.32
375.402	371.84
375.783	391.05
376.163	400.99
376.544	389.02
376.925	365.51
377.305	413.87
377.686	406.42
378.066	384.5
378.447	381.11
378.827	389.47
379.208	381.33
379.588	381.33
379.968	410.71
380.349	397.83
380.729	400.99
381.109	415
381.489	412.74
381.87	391.28
382.25	409.81
382.63	392.63
383.01	414.55
383.39	439.41
383.77	438.51
384.15	420.65
384.53	428.79
384.91	436.02
385.29	437.15
385.67	431.27
386.049	443.93
386.429	450.93
386.809	410.48
387.189	445.74
387.568	438.73
387.948	468.34
388.328	447.77
388.707	456.13
389.087	462.01
389.466	464.72
389.846	464.04
390.225	464.72
390.605	492.29
390.984	487.77
391.363	491.39
391.743	492.29
392.122	510.37
392.501	493.65
392.881	497.26
393.26	488.22
393.639	496.36
394.018	499.97
394.397	508.56
394.776	509.46
395.155	492.97
395.534	508.79
395.913	519.63
396.292	511.5
396.671	521.67
397.05	524.83
397.429	536.81
397.808	511.27
398.186	521.22
398.565	515.11
398.944	540.88
399.323	580.87
399.701	550.82
400.08	549.91
400.458	577.03
400.837	549.46
401.215	559.41
401.594	571.16
401.972	602.79
402.351	544.04
402.729	615.9
403.107	579.29
403.486	604.38
403.864	605.28
404.242	604.83
404.62	602.79
404.999	609.35
405.377	615.68
405.755	595.56
406.133	644.38
406.511	615.9
406.889	620.87
407.267	644.15
407.645	645.73
408.023	655.67
408.401	658.84
408.779	667.65
409.156	666.97
409.534	658.39
409.912	685.96
410.29	684.6
410.667	709.01
411.045	718.5
411.422	734.77
411.8	720.98
412.178	738.16
412.555	746.29
412.933	743.58
413.31	742
413.687	779.51
414.065	775.45
414.442	771.15
414.819	783.36
415.197	774.54
415.574	792.39
415.951	821.09
416.328	826.07
416.705	786.52
417.082	803.69
417.46	825.61
417.837	838.72
418.214	858.38
418.591	848.66
418.967	840.98
419.344	858.16
419.721	861.32
420.098	886.86
420.475	900.87
420.852	881.88
421.228	890.7
421.605	905.84
421.982	912.17
422.358	913.97
422.735	934.76
423.111	924.37
423.488	939.06
423.864	955.33
424.241	963.69
424.617	977.93
424.994	972.95
425.37	977.7
425.746	966.18
426.123	980.86
426.499	1011.37
426.875	1015.44
427.251	1039.85
427.627	1031.48
428.003	1052.5
428.379	1065.83
428.756	1067.19
429.132	1079.39
429.507	1096.12
429.883	1085.95
430.259	1122.56
430.635	1142.67
431.011	1130.69
431.387	1117.13
431.763	1177.02
432.138	1165.27
432.514	1178.6
432.89	1198.94
433.265	1236.9
433.641	1231.03
434.016	1253.63
434.392	1297.24
434.767	1302.21
435.143	1287.52
435.518	1288.2
435.894	1300.86
436.269	1323.23
436.644	1348.76
437.02	1380.63
437.395	1376.79
437.77	1386.05
438.145	1400.74
438.52	1370.91
438.895	1441.19
439.271	1434.41
439.646	1443
440.021	1479.61
440.395	1458.14
440.77	1441.64
441.145	1492.94
441.52	1500.17
441.895	1513.96
442.27	1515.31
442.645	1513.73
443.019	1498.82
443.394	1523.45
443.769	1579.49
444.143	1561.41
444.518	1574.07
444.892	1579.04
445.267	1548.53
445.641	1576.1
446.016	1607.74
446.39	1624.46
446.764	1600.73
447.139	1598.93
447.513	1652.03
447.887	1663.33
448.262	1640.51
448.636	1658.81
449.01	1707.4
449.384	1721.18
449.758	1704.69
450.132	1761.63
450.506	1732.48
450.88	1754.85
451.254	1713.95
451.628	1796.44
452.002	1767.28
452.376	1821.97
452.75	1858.36
453.123	1852.48
453.497	1885.25
453.871	1886.6
454.244	1956.21
454.618	1966.83
454.992	1987.39
455.365	1978.8
455.739	2033.72
456.112	2078.69
456.486	2054.51
456.859	2099.7
457.232	2124.79
457.606	2143.32
457.979	2173.6
458.352	2232.13
458.725	2192.81
459.099	2263.77
459.472	2278.46
459.845	2299.25
460.218	2328.17
460.591	2356.87
460.964	2348.29
461.337	2398.23
461.71	2451.33
462.083	2475.06
462.456	2489.98
462.829	2526.59
463.201	2548.51
463.574	2578.34
463.947	2596.87
464.32	2637.54
464.692	2664.44
465.065	2683.64
465.438	2740.14
465.81	2756.64
466.183	2761.61
466.555	2832.11
466.928	2867.82
467.3	2890.42
467.672	2908.95
468.045	2980.36
468.417	2994.37
468.789	2986.24
469.161	3023.75
469.534	3102.62
469.906	3151.43
470.278	3214.03
470.65	3226
471.022	3269.17
471.394	3308.03
471.766	3352.33
472.138	3423.29
472.51	3428.48
472.882	3487.92
473.253	3527.01
473.625	3618.31
473.997	3658.99
474.369	3715.71
474.74	3732.88
475.112	3756.61
475.484	3867.79
475.855	3901.69
476.227	4009.26
476.598	4105.08
476.97	4137.17
477.341	4269.14
477.713	4235.47
478.084	4318.63
478.455	4419.64
478.827	4475.24
479.198	4618.73
479.569	4622.12
479.94	4743.03
480.311	4807.88
480.682	4915.68
481.053	5067.31
481.424	5127.2
481.795	5172.62
482.166	5289.9
482.537	5368.55
482.908	5488.77
483.279	5558.14
483.65	5717.91
484.021	5863.9
484.391	5933.73
484.762	5995.2
485.133	6121.29
485.503	6174.17
485.874	6381.85
486.244	6439.25
486.615	6561.06
486.985	6700.49
487.356	6921.27
487.726	6961.5
488.097	7164.2
488.467	7262.28
488.837	7419.11
489.207	7565.1
489.578	7732.78
489.948	7819.55
490.318	8027.91
490.688	8112.2
491.058	8346.55
491.428	8471.29
491.798	8644.17
492.168	8815.46
492.538	8943.37
492.908	9128.9
493.278	9325.96
493.648	9386.29
494.017	9654.99
494.387	9815.43
494.757	9969.78
495.126	10159.61
495.496	10288.64
495.866	10521.63
496.235	10729.53
496.605	10873.03
496.974	10985.12
497.344	11246.58
497.713	11359.57
498.082	11646.12
498.452	11836.85
498.821	12082.95
499.19	12200.68
499.559	12458.3
499.928	12593.44
500.298	12793.43
500.667	13068.23
501.036	13250.82
501.405	13389.13
501.774	13631.15
502.143	13851.71
502.512	14012.16
502.88	14235.43
503.249	14357.24
503.618	14634.97
503.987	14781.41
504.356	14972.59
504.724	15255.52
505.093	15366.02
505.462	15526.24
505.83	15848.72
506.199	16089.62
506.567	16326.68
506.936	16450.74
507.304	16699.55
507.672	16844.63
508.041	16968.24
508.409	17260.66
508.777	17439.19
509.145	17745.62
509.514	17790.14
509.882	17951.27
510.25	18118.49
510.618	18343.12
510.986	18458.14
511.354	18731.81
511.722	18894.74
512.09	19082.76
512.458	19118.69
512.826	19377.89
513.193	19463.09
513.561	19610.66
513.929	19794.38
514.297	19963.19
514.664	20069.4
515.032	20192.79
515.4	20361.6
515.767	20547.13
516.135	20625.77
516.502	20565.89
516.869	21021.47
517.237	21121.13
517.604	20949.6
517.972	21310.95
518.339	21460.55
518.706	21416.03
519.073	21558.4
519.44	21510.72
519.808	21856.25
520.175	21797.27
520.542	22075.68
520.909	22076.58
521.276	22240.87
521.643	22331.26
522.009	22466.4
522.376	22650.35
522.743	22805.6
523.11	22920.17
523.477	23128.98
523.843	22995.88
524.21	23447.39
524.577	23376.43
524.943	23516.77
525.31	23599.7
525.676	23771
526.043	23817.33
526.409	23817.55
526.776	23987.49
527.142	24065.45
527.508	24084.66
527.874	24317.88
528.241	24302.74
528.607	24330.53
528.973	24578.44
529.339	24507.93
529.705	24608.72
530.071	24820.69
530.437	24707.02
530.803	24881.7
531.169	24920.35
531.535	24819.56
531.901	25018.88
532.267	24843.74
532.632	25005.54
532.998	25001.93
533.364	25164.86
533.73	25051.42
534.095	25227.68
534.461	25141.81
534.826	25172.09
535.192	25220
535.557	25331.18
535.923	25149.49
536.288	25156.27
536.653	25192.43
537.019	25170.51
537.384	25112.88
537.749	25135.71
538.114	25092.55
538.479	25150.62
538.845	25047.8
539.21	24943.62
539.575	25079.44
539.94	24991.08
540.305	25030.85
540.67	24889.84
541.034	24921.03
541.399	24886.68
541.764	24801.25
542.129	24812.55
542.494	24737.75
542.858	24776.17
543.223	24614.82
543.587	24649.17
543.952	24654.59
544.316	24518.1
544.681	24370.31
545.045	24587.47
545.41	24432.22
545.774	24444.65
546.138	24342.06
546.503	24296.41
546.867	24272
547.231	24284.21
547.595	24227.26
547.959	24265.68
548.324	24232.46
548.688	24071.78
549.052	24053.48
549.416	24153.81
549.779	23986.13
550.143	23949.07
550.507	23953.82
550.871	23919.47
551.235	23887.38
551.599	23935.51
551.962	23833.82
552.326	23761.06
552.689	23775.97
553.053	23528.97
553.417	23652.13
553.78	23882.41
554.143	23685.13
554.507	23726.93
554.87	23580.27
555.234	23700.04
555.597	23573.94
555.96	23624.56
556.323	23563.77
556.686	23503.44
557.05	23466.15
557.413	23473.15
557.776	23523.55
558.139	23627.27
558.502	23587.28
558.865	23484.23
559.228	23640.16
559.59	23569.2
559.953	23548.41
560.316	23717.44
560.679	23628.63
561.041	23715.18
561.404	23829.3
561.767	23890.09
562.129	23710.66
562.492	23892.35
562.854	23770.77
563.217	23688.29
563.579	23688.06
563.941	23859.13
564.304	23856.65
564.666	24093.25
565.028	23864.78
565.39	23945.23
565.753	24042.4
566.115	23999.02
566.477	24131.89
566.839	24181.84
567.201	24332.11
567.563	24139.35
567.925	24297.99
568.287	24379.34
568.648	24413.92
569.01	24470.64
569.372	24730.3
569.734	24563.52
570.095	24753.12
570.457	24750.18
570.819	24787.02
571.18	24643.52
571.542	24793.8
571.903	24848.71
572.265	24956.28
572.626	24866.34
572.987	25020.91
573.349	24942.49
573.71	25129.83
574.071	25064.07
574.432	25183.39
574.794	25355.36
575.155	25272.43
575.516	25202.6
575.877	25384.52
576.238	25241.02
576.599	25338.19
576.96	25436.49
577.32	25403.72
577.681	25417.06
578.042	25540.9
578.403	25422.48
578.763	25435.81
579.124	25386.55
579.485	25598.07
579.845	25462.03
580.206	25421.13
580.566	25519.43
580.927	25437.4
581.287	25574.12
581.648	25439.2
582.008	25562.36
582.368	25475.81
582.728	25471.75
583.089	25382.71
583.449	25342.71
583.809	25374.35
584.169	25417.74
584.529	25358.3
584.889	25587.9
585.249	25322.14
585.609	25101.81
585.969	25383.61
586.329	25180.45
586.688	25303.39
587.048	25118.99
587.408	25150.17
587.768	25252.99
588.127	25018.65
588.487	25089.38
588.846	25155.14
589.206	24907.01
589.565	25021.81
589.925	25052.55
590.284	24981.14
590.643	24862.5
591.003	24947.24
591.362	24933.23
591.721	25016.84
592.08	24996.96
592.44	24958.09
592.799	24893.46
593.158	24837.41
593.517	24827.02
593.876	24885.55
594.235	24740.69
594.593	24881.03
594.952	24896.62
595.311	24715.16
595.67	24799.45
596.029	24984.53
596.387	24841.93
596.746	25048.03
597.104	24763.06
597.463	24789.05
597.822	24810.52
598.18	24767.58
598.538	24754.25
598.897	24885.55
599.255	24688.94
599.613	24997.41
599.972	24767.58
600.33	24887.81
600.688	24716.06
601.046	24827.69
601.404	25080.34
601.762	24856.85
602.12	24959.67
602.478	24822.05
602.836	24937.75
603.194	24763.29
603.552	24815.72
603.91	24823.85
604.268	24850.97
604.625	24878.31
604.983	24946.11
605.341	24733.23
605.698	24817.07
606.056	24976.39
606.413	24975.04
606.771	25077.63
607.128	24932.1
607.485	24842.16
607.843	24946.56
608.2	24932.55
608.557	25081.93
608.914	25153.11
609.272	25020.68
609.629	25282.15
609.986	25266.1
610.343	25139.78
610.7	25344.29
611.057	25211.19
611.414	25246.67
611.771	25358.75
612.127	25343.39
612.484	25293.9
612.841	25472.88
613.198	25474.23
613.554	25414.57
613.911	25583.38
614.267	25553.1
614.624	25345.87
614.98	25626.77
615.337	25775.92
615.693	25761.91
616.05	25720.78
616.406	25809.14
616.762	25815.69
617.118	25827.44
617.475	25822.02
617.831	25878.51
618.187	25789.7
618.543	25871.06
618.899	26044.16
619.255	26000.77
619.611	25956.25
619.967	26214.1
620.323	26143.14
620.678	26151.28
621.034	26080.77
621.39	26081.45
621.746	26033.76
622.101	26368.67
622.457	26088.23
622.812	26429.46
623.168	26200.31
623.523	26295.9
623.879	26346.75
624.234	26197.38
624.589	26236.47
624.945	26179.07
625.3	26278.73
625.655	26296.58
626.01	26307.66
626.365	26235.34
626.72	26253.42
627.075	26263.14
627.43	26223.59
627.785	26155.57
628.14	26265.85
628.495	26199.18
628.85	26226.08
629.205	26189.69
629.559	26228.79
629.914	26088.23
630.269	26160.99
630.623	25936.14
630.978	25874.22
631.332	26190.6
631.687	26109.47
632.041	26075.8
632.396	26071.28
632.75	26011.84
633.104	26031.73
633.459	25930.49
633.813	25965.07
634.167	25955.35
634.521	25967.33
634.875	26012.97
635.229	25842.81
635.583	25672.19
635.937	25825.18
636.291	25592.87
636.645	25707.22
636.999	25682.59
637.352	25645.53
637.706	25611.85
638.06	25690.72
638.413	25604.4
638.767	25478.75
639.121	25533.44
639.474	25407.34
639.828	25385.42
640.181	25437.4
640.534	25457.28
640.888	25306.1
641.241	25230.62
641.594	25142.49
641.947	25318.98
642.301	25155.14
642.654	25270.62
643.007	25098.42
643.36	25143.62
643.713	25027.69
644.066	25229.04
644.419	25076.5
644.771	24662.5
645.124	24519.68
645.477	24468.83
645.83	24422.28
646.182	24519.91
646.535	24371.44
646.888	24516.74
647.24	24356.75
647.593	24598.32
647.945	24428.84
648.298	24380.47
648.65	24163.98
649.002	24151.78
649.355	23987.26
649.707	23799.25
650.059	23777.78
650.411	24224.55
650.763	24398.33
651.115	24794.48
651.467	24779.56
651.819	24767.58
652.171	24713.12
652.523	24635.61
652.875	24622.28
653.227	24554.93
653.578	24750.63
653.93	24719.45
654.282	24614.59
654.633	24585.89
654.985	24578.21
655.337	24620.24
655.688	24562.16
656.039	24830.18
656.391	24369.85
656.742	24547.48
657.094	24663.18
657.445	24630.19
657.796	24635.84
658.147	24582.28
658.498	24599.68
658.849	24798.99
659.2	24745.89
659.551	24624.31
659.902	24700.69
660.253	24577.98
660.604	24782.72
660.955	24641.03
661.306	24676.51
661.656	24717.87
662.007	24578.21
662.358	24694.59
662.708	24645.33
663.059	24668.83
663.409	24622.28
663.76	24759.67
664.11	24778.88
664.461	24805.77
664.811	24916.05
665.161	24782.95
665.511	24724.87
665.862	24713.8
666.212	24846
666.562	24902.27
666.912	24829.95
667.262	24719.9
667.612	24900.69
667.962	24946.79
668.312	24889.39
668.662	24829.95
669.011	24836.28
669.361	24808.49
669.711	24814.59
670.06	24890.52
670.41	24854.59
670.76	24814.36
671.109	24879.67
671.459	24838.09
671.808	24836.51
672.157	24765.78
672.507	24704.31
672.856	24641.48
673.205	24726
673.554	24834.25
673.904	24551.77
674.253	24808.49
674.602	24569.17
674.951	24354.49
675.3	24192.91
675.649	24528.27
675.998	24655.5
676.346	24560.81
676.695	24554.48
677.044	24414.15
677.393	24522.62
677.741	24555.16
678.09	24543.86
678.438	24445.11
678.787	24506.8
679.135	24460.47
679.484	24278.56
679.832	24386.12
680.181	24183.64
680.529	24266.58
680.877	24161.95
681.225	24134.15
681.573	24224.09
681.922	24083.53
682.27	24074.04
682.618	24055.51
682.966	23961.73
683.314	24051.9
683.661	23968.51
684.009	23888.51
684.357	23858.68
684.705	23705.46
685.053	23748.63
685.4	23745.01
685.748	23613.26
686.095	23629.31
686.443	23387.73
686.79	23462.53
687.138	23459.82
687.485	23413.04
687.832	23324.68
688.18	23320.16
688.527	23131.47
688.874	23124.01
689.221	23064.13
689.568	22935.09
689.915	22928.08
690.262	22886.5
690.609	22837.46
690.956	22758.6
691.303	22822.55
691.65	22591.37
691.997	22579.84
692.344	22478.83
692.69	22261.66
693.037	22338.04
693.383	22153.87
693.73	22171.95
694.077	22005.4
694.423	22036.58
694.769	21824.84
695.116	21805.4
695.462	21805.4
695.808	21688.34
696.155	21632.3
696.501	21579.42
696.847	21545.3
697.193	21431.85
697.539	21445.86
697.885	21131.97
698.231	21174.91
698.577	21056.95
698.923	21100.56
699.269	20937.85
699.614	20786.9
699.96	20751.64
700.306	20736.73
700.651	20671.87
700.997	20588.26
701.342	20524.3
701.688	20514.14
702.033	20430.75
702.379	20373.12
702.724	20158.21
703.069	20239.57
703.415	20024.21
703.76	19922.51
704.105	19949.63
704.45	19906.92
704.795	19868.95
705.14	19669.19
705.485	19646.59
705.83	19638.45
706.175	19741.05
706.52	19453.15
706.865	19538.12
707.209	19449.08
707.554	19486.82
707.899	19381.51
708.243	19317.56
708.588	19249.76
708.932	19202.98
709.277	19024.46
709.621	19159.82
709.966	18953.27
710.31	19069.88
710.654	18934.52
710.998	18980.62
711.342	18983.1
711.687	18815.88
712.031	18866.04
712.375	18716.44
712.719	18698.82
713.063	18780.85
713.407	18775.42
713.75	18652.49
714.094	18624.92
714.438	18669.66
714.782	18642.09
715.125	18453.4
715.469	18598.48
715.812	18493.85
716.156	18372.05
716.499	18401.65
716.843	18384.25
717.186	18349.22
717.53	18432.16
717.873	18381.54
718.216	18332.72
718.559	18266.29
718.902	18122.33
719.246	18212.05
719.589	18264.48
719.932	18101.54
720.275	18181.99
720.617	18096.8
720.96	18107.19
721.303	18123.01
721.646	18155.33
721.989	17956.01
722.331	18033.3
722.674	18006.86
723.016	18014.99
723.359	17988.55
723.701	18060.41
724.044	17892.51
724.386	17901.1
724.729	18009.12
725.071	17946.29
725.413	17986.74
725.755	17954.88
726.097	17937.48
726.439	17873.98
726.782	17901.32
727.124	17966.41
727.465	17857.93
727.807	17878.5
728.149	17876.01
728.491	17819.74
728.833	17875.34
729.175	17963.92
729.516	17854.09
729.858	17887.54
730.199	17949.91
730.541	17843.7
730.882	17849.8
731.224	17986.52
731.565	17945.62
731.906	17859.97
732.248	18040.75
732.589	17947.42
732.93	17931.83
733.271	17872.4
733.612	17818.84
733.953	17917.37
734.294	17801.21
734.635	18006.63
734.976	18032.17
735.317	18018.61
735.658	18066.29
735.999	17994.2
736.339	18115.1
736.68	18209.79
737.021	18080.75
737.361	18057.25
737.702	18174.31
738.042	18183.35
738.383	18183.58
738.723	18285.04
739.063	18287.53
739.404	18478.26
739.744	18397.58
740.084	18450.91
740.424	18579.27
740.764	18628.31
741.104	18707.86
741.444	18701.75
741.784	18725.93
742.124	18824.46
742.464	18860.39
742.804	18899.71
743.143	19006.38
743.483	19074.63
743.823	19093.38
744.162	19198.24
744.502	19395.3
744.841	19519.81
745.181	19527.72
745.52	19635.06
745.86	19796.19
746.199	19864.66
746.538	19946.24
746.877	20137.2
747.216	20234.37
747.556	20458.32
747.895	20576.73
748.234	20618.31
748.573	20863.28
748.911	20905.54
749.25	21052.88
749.589	21170.84
749.928	21451.51
750.267	21547.55
750.605	21764.05
750.944	22044.04
751.283	22190.7
751.621	22369.23
751.96	22597.02
752.298	22760.18
752.636	23027.97
752.975	23204.91
753.313	23332.82
753.651	23713.83
753.989	23839.92
754.327	24154.49
754.666	24217.09
755.004	24638.77
755.342	24825.21
755.679	24994.7
756.017	25140
756.355	25503.61
756.693	25598.52
757.031	26016.59
757.368	26147.89
757.706	26389.91
758.044	26653.41
758.381	26851.14
758.719	27177.46
759.056	27373.62
759.394	27558.7
759.731	27722.08
760.068	27960.49
760.405	28186.25
760.743	28353.93
761.08	28652
761.417	28974.93
761.754	28979.45
762.091	29361.59
762.428	29438.42
762.765	29540.34
763.102	29932.42
763.438	30098.52
763.775	30219.64
764.112	30461.9
764.449	30658.28
764.785	30679.97
765.122	30912.05
765.458	31069.79
765.795	31271.82
766.131	31569.44
766.467	31710.45
766.804	31534.18
767.14	31780.28
767.476	31760.62
767.812	32025.92
768.148	32388.17
768.485	32383.2
768.821	32347.5
769.157	32375.97
769.492	32582.52
769.828	32751.33
770.164	32580.71
770.5	32893.02
770.836	32928.5
771.171	32985.22
771.507	33156.74
771.842	33028.38
772.178	33319.45
772.513	33123.97
772.849	33240.35
773.184	33242.61
773.519	33375.04
773.855	33285.55
774.19	33413.91
774.525	33309.96
774.86	33429.5
775.195	33321.93
775.53	33457.52
775.865	33281.94
776.2	33268.38
776.535	33112.22
776.87	33336.4
777.205	33245.33
777.539	33240.58
777.874	33287.59
778.209	33152
778.543	33124.43
778.878	33057.31
779.212	33156.97
779.547	32880.14
779.881	32995.39
780.215	32737.54
780.55	33005.56
780.884	32814.15
781.218	32860.48
781.552	32890.76
781.886	32698.22
782.22	32598.56
782.554	32518.57
782.888	32411.9
783.222	32369.87
783.556	32160.61
783.889	32343.88
784.223	32007.39
784.557	32121.51
784.89	32211
785.224	32024.79
785.557	31918.36
785.891	31913.61
786.224	31813.95
786.558	31797.91
786.891	31695.08
787.224	31663.67
787.557	31536.67
787.891	31555.88
788.224	31379.84
788.557	31454.87
788.89	31463.9
789.223	31323.57
789.556	31239.05
789.888	31127.42
790.221	31062.33
790.554	30830.7
790.887	31063.01
791.219	30812.4
791.552	30791.38
791.884	30771.27
792.217	30772.4
792.549	30612.18
792.882	30428.68
793.214	30363.82
793.546	30395.23
793.879	30320.66
794.211	30095.58
794.543	30077.5
794.875	30143.26
795.207	30080.44
795.539	30066.88
795.871	29980.55
796.203	29905.3
796.535	29676.15
796.867	29772.88
797.198	29526.55
797.53	29632.99
797.862	29381.47
798.193	29424.41
798.525	29234.36
798.856	29499.21
799.188	29115.72
799.519	29124.3
799.85	29004.99
800.182	29056.74
800.513	29093.35
800.844	28829.4
801.175	28953.24
801.506	29082.72
801.837	28721.83
802.168	28635.73
802.499	28732.45
802.83	28492.01
803.161	28456.98
803.491	28429.18
803.822	28520.93
804.153	28237.55
804.483	28210.66
804.814	27994.39
805.145	27997.33
805.475	28106.7
805.805	27994.62
806.136	28073.49
806.466	27973.83
806.796	27878.69
807.126	27652.25
807.457	27675.3
807.787	27797.79
808.117	27579.94
808.447	27445.03
808.777	27566.38
809.107	27407.51
809.436	27410
809.766	27463.11
810.096	27454.29
810.426	27259.5
810.755	27400.73
811.085	27198.25
811.414	27251.36
811.744	27129.33
812.073	27087.07
812.403	27065.6
812.732	27036.45
813.061	27107.63
813.39	26839.62
813.719	26841.65
814.049	26943.12
814.378	26868.32
814.707	26624.94
815.036	26676.69
815.365	26624.71
815.693	26373.19
816.022	26419.52
816.351	26379.07
816.68	26274.21
817.008	26365.96
817.337	26049.58
817.665	26119.86
817.994	26137.94
818.322	26333.87
818.651	26144.72
818.979	26012.52
819.307	26115.34
819.636	26068.34
819.964	25959.64
820.292	25991.73
820.62	25961.22
820.948	26032.63
821.276	26132.52
821.604	25982.69
821.932	26093.42
822.259	26080.32
822.587	26080.09
822.915	26029.92
823.243	26079.19
823.57	26014.78
823.898	26125.74
824.225	26026.99
824.553	26013.65
824.88	26141.78
825.207	26151.28
825.535	26027.66
825.862	26061.11
826.189	26148.56
826.516	26339.75
826.843	26230.14
827.17	26268.56
827.497	26361.89
827.824	26247.77
828.151	26245.74
828.478	26261.1
828.805	26439.63
829.131	26311.27
829.458	26340.65
829.785	26131.84
830.111	26197.83
830.438	26418.84
830.764	26199.18
831.09	26296.13
831.417	26287.32
831.743	26388.11
832.069	26258.84
832.395	26113.54
832.722	26274.89
833.048	26162.12
833.374	26265.4
833.7	26193.31
834.026	26367.54
834.351	26178.39
834.677	26356.24
835.003	26158.73
835.329	26164.83
835.654	26240.09
835.98	26032.41
836.306	26243.25
836.631	26040.32
836.956	26353.98
837.282	26160.09
837.607	26034.89
837.932	25967.55
838.258	26032.41
838.583	25995.12
838.908	25992.41
839.233	26045.52
839.558	25805.07
839.883	25795.13
840.208	25721.68
840.533	25748.8
840.858	25795.13
841.182	25784.28
841.507	25612.08
841.832	25685.75
842.156	25633.1
842.481	25597.39
842.805	25470.39
843.13	25467
843.454	25320.11
843.778	25330.73
844.103	25329.15
844.427	25252.09
844.751	25268.81
845.075	25208.25
845.399	25214.35
845.723	25145.43
846.047	24964.19
846.371	24836.28
846.695	24867.24
847.019	24746.57
847.343	24513.35
847.666	24645.33
847.99	24378.44
848.313	24272
848.637	24403.53
848.96	24214.83
849.284	24227.26
849.607	23988.17
849.931	23936.64
850.254	23913.14
850.577	23751.34
850.9	23597.9
851.223	23562.64
851.546	23474.28
851.869	23339.82
852.192	23472.93
852.515	23275.87
852.838	23086.72
853.161	23219.15
853.483	22985.71
853.806	22960.85
854.129	22859.16
854.451	22863.23
854.774	22633.85
855.096	22711.37
855.419	22530.81
855.741	22571.93
856.063	22418.27
856.385	22332.39
856.708	22283.58
857.03	22308.21
857.352	22238.84
857.674	22144.83
857.996	22082.23
858.318	21911.39
858.64	21977.6
858.961	21857.83
859.283	21830.94
859.605	21656.7
859.926	21812.63
860.248	21681.34
860.57	21574.45
860.891	21560.66
861.212	21444.96
861.534	21436.6
861.855	21364.96
862.176	21312.76
862.498	21340.55
862.819	21360.67
863.14	21179.65
863.461	21202.48
863.782	21144.63
864.103	21229.37
864.424	21140.56
864.745	21105.31
865.065	20971.98
865.386	20883.62
865.707	20928.59
866.027	20972.2
866.348	20880.68
866.668	20835.03
866.989	20805.65
867.309	20655.6
867.63	20659.67
867.95	20677.97
868.27	20595.04
868.59	20669.16
868.91	20563.85
869.23	20556.85
869.55	20538.77
869.87	20501.25
870.19	20388.26
870.51	20504.87
870.83	20415.61
871.15	20332.45
871.469	20196.4
871.789	20269.17
872.109	20172.22
872.428	20105.33
872.748	20156.18
873.067	20130.19
873.386	20216.52
873.706	20189.62
874.025	20108.5
874.344	20030.08
874.663	20106.91
874.982	19927.71
875.301	19863.76
875.62	19812.23
875.939	19787.15
876.258	19792.12
876.577	19817.88
876.896	19698.56
877.214	19796.87
877.533	19762.97
877.852	19703.08
878.17	19744.21
878.489	19642.52
878.807	19514.39
879.125	19546.7
879.444	19488.85
879.762	19427.16
880.08	19585.35
880.398	19390.55
880.716	19400.94
881.034	19235.53
881.352	19326.6
881.67	19258.12
881.988	19286.15
882.306	19208.86
882.624	19159.14
882.941	19109.88
883.259	19002.54
883.577	18900.84
883.894	18902.43
884.212	18854.74
884.529	18890.9
884.846	18854.97
885.164	18732.71
885.481	18639.16
885.798	18709.21
886.115	18607.29
886.432	18595.09
886.75	18642.09
887.067	18598.93
887.383	18465.15
887.7	18391.71
888.017	18329.33
888.334	18388.32
888.651	18285.95
888.967	18249.34
889.284	18275.32
889.6	18169.34
889.917	18056.35
890.233	18050.7
890.55	18070.13
890.866	18058.61
891.182	17847.54
891.498	17853.87
891.815	17828.1
892.131	17758.5
892.447	17719.18
892.763	17614.1
893.079	17634.44
893.395	17553.99
893.71	17517.38
894.026	17403.03
894.342	17381.34
894.657	17209.36
894.973	17242.13
895.289	17283.94
895.604	17235.13
895.92	17063.83
896.235	17005.08
896.55	16956.26
896.865	16948.58
897.181	16852.76
897.496	16866.55
897.811	16712.2
898.126	16681.69
898.441	16618.42
898.756	16660.23
899.071	16545.43
899.386	16544.07
899.7	16400.57
900.015	16257.3
900.33	16181.82
900.644	16209.62
900.959	16177.98
901.273	16085.78
901.588	16049.85
901.902	16044.2
902.216	15966.23
902.531	15894.6
902.845	15741.61
903.159	15771.66
903.473	15692.57
903.787	15646.47
904.101	15589.97
904.415	15530.09
904.729	15397.89
905.042	15293.26
905.356	15390.65
905.67	15282.18
905.984	15291.9
906.297	15223.65
906.611	15116.54
906.924	15060.04
907.237	14966.03
907.551	15004.9
907.864	14884.23
908.177	14846.71
908.491	14831.35
908.804	14650.79
909.117	14658.7
909.43	14494.18
909.743	14456.67
910.056	14551.58
910.368	14422.54
910.681	14312.94
910.994	14324.47
911.307	14185.04
911.619	14136
911.932	14072.05
912.244	13957.7
912.557	13994.53
912.869	13876.57
913.181	13798.61
913.494	13800.41
913.806	13806.06
914.118	13722.9
914.43	13579.18
914.742	13590.02
915.054	13504.6
915.366	13454.89
915.678	13408.56
915.99	13350.93
916.302	13279.98
916.613	13240.88
916.925	13247.43
917.236	13184.38
917.548	13061.68
917.859	13072.3
918.171	12945.3
918.482	12835.47
918.794	12806.99
919.105	12832.98
919.416	12770.61
919.727	12721.12
920.038	12675.7
920.349	12516.38
920.66	12541.01
920.971	12501.92
921.282	12440.9
921.593	12401.81
921.903	12310.06
922.214	12303.28
922.525	12231.19
922.835	12070.52
923.146	12140.12
923.456	12063.74
923.767	12079.1
924.077	12008.37
924.387	11922.05
924.697	11904.42
925.008	11796.17
925.318	11795.04
925.628	11754.14
925.938	11644.99
926.248	11601.6
926.558	11518.67
926.867	11563.41
927.177	11476.41
927.487	11471.44
927.796	11258.56
928.106	11277.32
928.416	11267.83
928.725	11227.83
929.034	11163.65
929.344	11209.75
929.653	11231.22
929.962	11083.88
930.271	10994.16
930.581	11014.72
930.89	10887.5
931.199	10829.64
931.508	10853.6
931.817	10775.86
932.125	10734.05
932.434	10659.25
932.743	10593.72
933.051	10645.92
933.36	10595.3
933.669	10554.4
933.977	10532.93
934.286	10445.47
934.594	10437.34
934.902	10357.34
935.21	10314.4
935.519	10263.56
935.827	10271.47
936.135	10164.35
936.443	10125.03
936.751	10031.02
937.059	10120.74
937.367	9940.4
937.674	10027.86
937.982	9867.64
938.29	9871.93
938.597	9891.14
938.905	9711.03
939.213	9687.3
939.52	9666.96
939.827	9673.74
940.135	9641.43
940.442	9558.04
940.749	9594.65
941.056	9597.59
941.363	9452.73
941.67	9408.21
941.977	9349.23
942.284	9299.74
942.591	9230.36
942.898	9196.47
943.205	9229.69
943.511	9157.6
943.818	9174.55
944.125	9066.08
944.431	9065.85
944.738	8982.24
945.044	8960.32
945.35	8892.52
945.657	8883.03
945.963	8860.88
946.269	8832.63
946.575	8745.18
946.881	8738.4
947.187	8696.59
947.493	8576.82
947.799	8573.21
948.105	8515.36
948.41	8514.23
948.716	8446.43
949.022	8466.32
949.327	8449.14
949.633	8331.41
949.938	8375.7
950.244	8296.6
950.549	8201.47
950.854	8254.12
951.16	8264.06
951.465	8132.31
951.77	8124.86
952.075	8120.11
952.38	8012.54
952.685	8120.79
952.99	8013
953.294	7978.42
953.599	7900.68
953.904	7825.66
954.209	7762.61
954.513	7861.59
954.818	7722.61
955.122	7776.62
955.426	7726.45
955.731	7619.79
956.035	7567.58
956.339	7600.8
956.643	7602.16
956.948	7503.63
957.252	7435.84
957.556	7436.51
957.86	7417.53
958.163	7424.76
958.467	7366.01
958.771	7301.6
959.075	7292.79
959.378	7223.19
959.682	7228.61
959.985	7194.49
960.289	7150.42
960.592	7091.44
960.896	7084.66
961.199	7086.92
961.502	7033.81
961.805	7039.24
962.108	6970.54
962.411	6938.22
962.714	6848.28
963.017	6836.76
963.32	6942.06
963.623	6833.37
963.926	6782.97
964.228	6787.27
964.531	6739.36
964.833	6686.48
965.136	6660.94
965.438	6644.9
965.741	6632.01
966.043	6581.39
966.345	6551.34
966.648	6529.19
966.95	6450.32
967.252	6347.5
967.554	6405.13
967.856	6421.17
968.158	6337.11
968.46	6394.96
968.761	6314.06
969.063	6223.66
969.365	6229.09
969.666	6243.32
969.968	6122.42
970.269	6161.52
970.571	6086.04
970.872	6141.86
971.174	6100.96
971.475	6035.65
971.776	6032.03
972.077	6026.38
972.378	6008.53
972.679	5969.89
972.98	5941.86
973.281	5911.81
973.582	5832.04
973.883	5861.87
974.183	5801.53
974.484	5783
974.785	5710.46
975.085	5715.2
975.386	5692.38
975.686	5690.12
975.986	5643.57
976.287	5600.86
976.587	5626.84
976.887	5579.61
977.187	5549.11
977.487	5538.26
977.787	5501.65
978.087	5457.58
978.387	5482.21
978.687	5427.98
978.987	5354.76
979.286	5361.77
979.586	5397.25
979.885	5352.05
980.185	5258.49
980.484	5260.75
980.784	5216.01
981.083	5199.51
981.382	5226.85
981.682	5120.19
981.981	5144.37
982.28	5122.45
982.579	5050.81
982.878	5096.01
983.177	5086.29
983.475	5054.88
983.774	4966.3
984.073	4994.09
984.372	4922.46
984.67	4918.84
984.969	4971.49
985.267	4915.45
985.566	4879.52
985.864	4815.34
986.162	4817.37
986.461	4805.17
986.759	4797.26
987.057	4753.65
987.355	4651.95
987.653	4714.55
987.951	4683.59
988.249	4681.78
988.547	4693.99
988.844	4635.68
989.142	4627.77
989.44	4552.07
989.737	4539.87
990.035	4561.56
990.332	4519.53
990.63	4492.86
990.927	4474.33
991.224	4444.05
991.521	4430.49
991.819	4407.21
992.116	4346.88
992.413	4407.21
992.71	4312.53
993.006	4291.51
993.303	4312.53
993.6	4253.77
993.897	4246.09
994.193	4262.36
994.49	4184.17
994.787	4184.62
995.083	4162.7
995.379	4142.59
995.676	4127.45
995.972	4074.34
996.268	4027.34
996.565	4030.28
996.861	4003.38
997.157	4009.71
997.453	3984.4
997.749	3985.76
998.044	3949.6
998.34	3931.29
998.636	3882.26
998.932	3879.32
999.227	3839.09
999.523	3808.36
999.818	3835.03
1000.114	3799.55
1000.409	3762.71
1000.704	3776.5
1001	3776.5
1001.295	3728.59
1001.59	3672.77
1001.885	3638.65
1002.18	3635.26
1002.475	3608.14
1002.77	3625.54
1003.065	3563.17
1003.359	3556.39
1003.654	3567.69
1003.949	3530.4
1004.243	3487.69
1004.538	3483.62
1004.832	3517.29
1005.127	3442.95
1005.421	3402.5
1005.715	3403.63
1006.009	3406.11
1006.304	3329.95
1006.598	3342.38
1006.892	3314.59
1007.186	3304.42
1007.48	3270.75
1007.773	3251.09
1008.067	3242.95
1008.361	3189.85
1008.655	3219.9
1008.948	3194.37
1009.242	3115.27
1009.535	3172.9
1009.829	3134.03
1010.122	3083.18
1010.415	3057.19
1010.708	3040.24
1011.001	3027.14
1011.295	3026.23
1011.588	2986.46
1011.881	2986.69
1012.173	2985.78
1012.466	2944.2
1012.759	2927.93
1013.052	2928.84
1013.344	2892.23
1013.637	2875.05
1013.93	2817.65
1014.222	2842.06
1014.514	2841.83
1014.807	2804.32
1015.099	2810.19
1015.391	2747.15
1015.683	2746.47
1015.976	2733.36
1016.268	2714.6
1016.56	2686.36
1016.851	2681.84
1017.143	2658.11
1017.435	2675.06
1017.727	2620.14
1018.018	2600.48
1018.31	2595.74
1018.602	2600.71
1018.893	2545.57
1019.185	2545.79
1019.476	2531.78
1019.767	2511.45
1020.058	2486.59
1020.35	2426.02
1020.641	2452.69
1020.932	2397.32
1021.223	2407.27
1021.514	2406.82
1021.804	2337.21
1022.095	2379.02
1022.386	2372.24
1022.677	2322.52
1022.967	2313.03
1023.258	2285.91
1023.548	2283.2
1023.839	2267.84
1024.129	2229.19
1024.419	2226.93
1024.709	2183.54
1025	2185.58
1025.29	2197.1
1025.58	2149.19
1025.87	2129.76
1026.16	2135.18
1026.449	2121.85
1026.739	2078.01
1027.029	2106.03
1027.319	2051.57
1027.608	2037.56
1027.898	2076.88
1028.187	2047.73
1028.477	2019.93
1028.766	1999.59
1029.055	2009.09
1029.344	1964.12
1029.634	1965.47
1029.923	1937
1030.212	1934.74
1030.501	1893.83
1030.79	1885.7
1031.078	1882.99
1031.367	1846.38
1031.656	1874.17
1031.945	1835.3
1032.233	1826.49
1032.522	1828.07
1032.81	1836.89
1033.099	1779.49
1033.387	1762.76
1033.675	1775.87
1033.963	1758.7
1034.251	1731.13
1034.54	1713.05
1034.828	1730.45
1035.116	1710.56
1035.403	1691.35
1035.691	1673.73
1035.979	1666.95
1036.267	1661.98
1036.554	1626.04
1036.842	1642.99
1037.129	1629.89
1037.417	1607.74
1037.704	1584.92
1037.992	1556.67
1038.279	1580.17
1038.566	1559.15
1038.853	1559.15
1039.14	1559.15
