Data from 3278_FLMS001491_009.txt Node
Date: Thu Apr 19 15:16:26 BST 2018
User: hsy
Spectrometer: FLMS00149
Trigger mode: 0
Integration Time (sec): 1.000000E-2
Scans to average: 10
Electric dark correction enabled: true
Nonlinearity correction enabled: false
Boxcar width: 0
XAxis mode: Wavelengths
Number of Pixels in Spectrum: 2048
>>>>>Begin Spectral Data<<<<<
341.393	-18.47
341.776	-18.47
342.16	-18.47
342.543	-62.77
342.927	-62.54
343.31	-73.16
343.693	-68.42
344.077	-61.18
344.46	-65.48
344.843	-66.61
345.226	-45.37
345.61	-45.14
345.993	-20.06
346.376	-0.4
346.759	21.52
347.142	38.47
347.525	46.61
347.908	61.75
348.291	89.77
348.674	71.47
349.057	116.21
349.44	117.12
349.823	144.01
350.206	176.78
350.588	239.6
350.971	255.19
351.354	259.71
351.737	292.03
352.119	298.35
352.502	293.16
352.884	317.11
353.267	305.81
353.65	326.6
354.032	357.79
354.414	351.46
354.797	346.71
355.179	362.08
355.562	363.89
355.944	352.36
356.326	384.91
356.709	379.26
357.091	369.99
357.473	376.09
357.855	380.16
358.238	382.42
358.62	392.14
359.002	394.85
359.384	384
359.766	395.98
360.148	415.19
360.53	391.46
360.912	379.93
361.294	364.79
361.676	379.71
362.057	363.66
362.439	363.21
362.821	381.29
363.203	386.49
363.584	383.32
363.966	379.71
364.348	365.24
364.729	390.1
365.111	363.21
365.493	354.17
365.874	382.42
366.256	376.32
366.637	351.23
367.019	381.52
367.4	371.57
367.781	384.23
368.163	363.44
368.544	386.26
368.925	362.53
369.306	370.67
369.688	382.87
370.069	376.32
370.45	339.71
370.831	372.93
371.212	392.81
371.593	366.6
371.974	380.61
372.355	367.05
372.736	381.74
373.117	388.52
373.498	370.22
373.879	382.42
374.26	379.93
374.641	373.61
375.021	379.71
375.402	398.92
375.783	391.46
376.163	389.88
376.544	400.72
376.925	384.68
377.305	398.46
377.686	379.03
378.066	396.88
378.447	407.73
378.827	380.61
379.208	393.49
379.588	394.17
379.968	403.21
380.349	435.53
380.729	431.46
381.109	434.85
381.489	435.3
381.87	414.73
382.25	413.6
382.63	435.07
383.01	444.34
383.39	433.27
383.77	420.61
384.15	447.05
384.53	430.33
384.91	462.19
385.29	449.99
385.67	444.11
386.049	459.93
386.429	451.34
386.809	444.34
387.189	457.9
387.568	453.83
387.948	457.22
388.328	463.1
388.707	480.27
389.087	468.29
389.466	499.25
389.846	481.85
390.225	488.86
390.605	470.78
390.984	509.42
391.363	501.29
391.743	496.31
392.122	504.68
392.501	504.68
392.881	517.11
393.26	527.27
393.639	529.76
394.018	525.69
394.397	522.3
394.776	522.75
395.155	539.25
395.534	545.13
395.913	542.87
396.292	554.17
396.671	535.64
397.05	539.25
397.429	565.01
397.808	561.17
398.186	546.93
398.565	565.92
398.944	565.69
399.323	569.76
399.701	600.27
400.08	593.49
400.458	576.31
400.837	579.02
401.215	611.34
401.594	586.03
401.972	593.94
402.351	597.78
402.729	600.49
403.107	608.85
403.486	624.45
403.864	632.36
404.242	629.64
404.62	637.1
404.999	661.51
405.377	638.01
405.755	659.25
406.133	674.84
406.511	667.84
406.889	682.75
407.267	689.98
407.645	694.73
408.023	689.98
408.401	713.26
408.779	708.29
409.156	737.44
409.534	706.93
409.912	726.37
410.29	720.26
410.667	742.86
411.045	764.56
411.422	764.56
411.8	759.13
412.178	779.25
412.555	807.04
412.933	796.65
413.31	829.41
413.687	823.99
414.065	825.12
414.442	831.67
414.819	837.77
415.197	830.09
415.574	855.18
415.951	834.38
416.328	864.89
416.705	863.76
417.082	873.48
417.46	872.12
417.837	900.15
418.214	906.02
418.591	894.72
418.967	923.42
419.344	902.18
419.721	906.93
420.098	930.43
420.475	921.16
420.852	932.24
421.228	955.74
421.605	926.36
421.982	957.32
422.358	973.36
422.735	982.4
423.111	998
423.488	1010.88
423.864	1006.81
424.241	1014.27
424.617	1032.12
424.994	1066.02
425.37	1063.08
425.746	1074.6
426.123	1054.94
426.499	1078.67
426.875	1113.93
427.251	1122.29
427.627	1119.12
428.003	1117.99
428.379	1131.33
428.756	1157.31
429.132	1153.7
429.507	1189.4
429.883	1195.96
430.259	1231.66
430.635	1224.66
431.011	1245
431.387	1239.57
431.763	1264.43
432.138	1266.69
432.514	1306.91
432.89	1308.72
433.265	1326.8
433.641	1329.97
434.016	1335.39
434.392	1320.25
434.767	1392.11
435.143	1401.83
435.518	1412.67
435.894	1423.75
436.269	1452.45
436.644	1439.34
437.02	1447.7
437.395	1471.88
437.77	1518.66
438.145	1516.4
438.52	1541.71
438.895	1574.03
439.271	1525.89
439.646	1590.52
440.021	1602.95
440.395	1610.64
440.77	1582.16
441.145	1606.12
441.52	1622.84
441.895	1641.37
442.27	1656.74
442.645	1624.87
443.019	1680.46
443.394	1687.92
443.769	1679.56
444.143	1697.41
444.518	1748.03
444.892	1714.59
445.267	1748.03
445.641	1755.72
446.016	1750.52
446.39	1793.68
446.764	1782.61
447.139	1748.71
447.513	1783.29
447.887	1796.85
448.262	1823.96
448.636	1825.09
449.01	1874.36
449.384	1864.19
449.758	1869.61
450.132	1908.03
450.506	1895.37
450.88	1931.76
451.254	1948.48
451.628	1977.18
452.002	1986.22
452.376	2014.92
452.75	2018.76
453.123	2063.28
453.497	2058.53
453.871	2082.04
454.244	2149.15
454.618	2167.91
454.992	2179.43
455.365	2182.37
455.739	2214.01
456.112	2251.75
456.486	2271.18
456.859	2293.78
457.232	2355.7
457.606	2348.24
457.979	2391.86
458.352	2414.46
458.725	2453.1
459.099	2483.16
459.472	2470.95
459.845	2543.49
460.218	2559.54
460.591	2540.78
460.964	2570.61
461.337	2608.35
461.71	2699.65
462.083	2732.41
462.456	2758.63
462.829	2811.51
463.201	2849.25
463.574	2818.97
463.947	2873.88
464.32	2908.23
464.692	2935.57
465.065	2960.88
465.438	2962.46
465.81	3054.89
466.183	3084.5
466.555	3165.4
466.928	3165.4
467.3	3186.19
467.672	3212.4
468.045	3267.99
468.417	3282.46
468.789	3285.39
469.161	3339.4
469.534	3387.76
469.906	3448.55
470.278	3503.47
470.65	3524.03
471.022	3603.58
471.394	3641.99
471.766	3653.29
472.138	3716.79
472.51	3823.68
472.882	3850.58
473.253	3888.32
473.625	3923.8
473.997	4017.8
474.369	4060.97
474.74	4104.13
475.112	4191.13
475.484	4246.05
475.855	4326.04
476.227	4392.94
476.598	4523.1
476.97	4588.41
477.341	4613.04
477.713	4724.23
478.084	4763.1
478.455	4905.46
478.827	4967.61
479.198	5065.01
479.569	5113.59
479.94	5296.87
480.311	5342.74
480.682	5445.56
481.053	5536.63
481.424	5676.74
481.795	5781.15
482.166	5840.13
482.537	5914.25
482.908	6071.99
483.279	6127.35
483.65	6305.88
484.021	6458.87
484.391	6531.86
484.762	6607.57
485.133	6756.49
485.503	6883.27
485.874	6989.48
486.244	7177.72
486.615	7301.33
486.985	7433.53
487.356	7588.33
487.726	7664.04
488.097	7897.7
488.467	8040.07
488.837	8223.57
489.207	8318.48
489.578	8527.52
489.948	8648.42
490.318	8833.72
490.688	8872.59
491.058	9145.58
491.428	9274.84
491.798	9361.17
492.168	9699.01
492.538	9765
492.908	10035.95
493.278	10217.64
493.648	10326.56
494.017	10602.04
494.387	10741.24
494.757	10809.49
495.126	11052.87
495.496	11201.57
495.866	11412.64
496.235	11590.49
496.605	11804.94
496.974	12029.34
497.344	12253.97
497.713	12405.61
498.082	12592.49
498.452	12794.97
498.821	12977.34
499.19	13171.01
499.559	13368.97
499.928	13596.76
500.298	13759.69
500.667	14014.6
501.036	14103.87
501.405	14380.24
501.774	14440.35
502.143	14749.5
502.512	14948.82
502.88	15197.85
503.249	15333.44
503.618	15604.17
503.987	15782.69
504.356	16068.33
504.724	16238.05
505.093	16356.69
505.462	16466.29
505.83	16744.7
506.199	16936.79
506.567	17232.82
506.936	17398.7
507.304	17685.24
507.672	17828.06
508.041	17978.79
508.409	18209.3
508.777	18448.38
509.145	18734.71
509.514	18704.42
509.882	18971.99
510.25	19091.08
510.618	19344.41
510.986	19444.74
511.354	19570.39
511.722	19880.89
512.09	20128.11
512.458	20032.3
512.826	20277.49
513.193	20449.46
513.561	20603.81
513.929	20711.6
514.297	20925.16
514.664	21022.55
515.032	21152.72
515.4	21408.99
515.767	21461.41
516.135	21598.58
516.502	21498.25
516.869	21959.25
517.237	22086.71
517.604	21861.18
517.972	22250.32
518.339	22350.66
518.706	22465.23
519.073	22519.01
519.44	22560.37
519.808	22818.21
520.175	22948.38
520.542	23137.3
520.909	23227.02
521.276	23218.66
521.643	23511.75
522.009	23561.47
522.376	23733.67
522.743	23772.54
523.11	23981.57
523.477	24149.48
523.843	24205.75
524.21	24439.19
524.577	24488.9
524.943	24615.91
525.31	24677.6
525.676	24919.4
526.043	24989
526.409	25012.05
526.776	25231.03
527.142	25220.64
527.508	25275.55
527.874	25417.47
528.241	25415.66
528.607	25537.01
528.973	25733.17
529.339	25610
529.705	25862.88
530.071	26010.45
530.437	25983.55
530.803	26098.13
531.169	26212.7
531.535	26058.81
531.901	26190.1
532.267	26265.13
532.632	26367.05
532.998	26422.86
533.364	26416.09
533.73	26391.23
534.095	26586.93
534.461	26482.3
534.826	26438.68
535.192	26468.06
535.557	26698.34
535.923	26635.29
536.288	26591
536.653	26622.18
537.019	26558.91
537.384	26599.36
537.749	26492.69
538.114	26538.57
538.479	26469.87
538.845	26429.64
539.21	26248.41
539.575	26407.5
539.94	26346.03
540.305	26549.19
540.67	26291.57
541.034	26327.27
541.399	26192.59
541.764	26234.85
542.129	26263.55
542.494	26278.24
542.858	26135.64
543.223	26033.95
543.587	26094.06
543.952	25990.56
544.316	26071.46
544.681	25857.91
545.045	26021.29
545.41	25995.76
545.774	25864.69
546.138	25823.78
546.503	25721.87
546.867	25683
547.231	25790.34
547.595	25684.58
547.959	25727.52
548.324	25673.05
548.688	25623.34
549.052	25593.06
549.416	25550.35
549.779	25526.16
550.143	25345.15
550.507	25605.26
550.871	25504.92
551.235	25389.9
551.599	25500.4
551.962	25377.69
552.326	25378.15
552.689	25419.05
553.053	25280.52
553.417	25278.94
553.78	25411.14
554.143	25384.02
554.507	25295.89
554.87	25274.65
555.234	25392.16
555.597	25163.69
555.96	25301.99
556.323	25208.89
556.686	25143.35
557.05	25252.27
557.413	25228.32
557.776	25200.98
558.139	25301.54
558.502	25297.92
558.865	25220.86
559.228	25342.44
559.59	25356.45
559.953	25364.36
560.316	25503.34
560.679	25357.36
561.041	25437.81
561.404	25520.74
561.767	25620.17
562.129	25454.08
562.492	25561.87
562.854	25582.43
563.217	25516.45
563.579	25541.08
563.941	25664.92
564.304	25766.16
564.666	25812.49
565.028	25826.95
565.39	25884.35
565.753	25983.1
566.115	26023.55
566.477	26025.36
566.839	26128.86
567.201	26262.42
567.563	26204.11
567.925	26356.88
568.287	26268.97
568.648	26387.84
569.01	26473.94
569.372	26671.45
569.734	26595.97
570.095	26748.96
570.457	26820.37
570.819	26797.09
571.18	26785.11
571.542	27125.44
571.903	26909.63
572.265	26857.66
572.626	27094.03
572.987	26993.25
573.349	27101.26
573.71	27169.06
574.071	27233.92
574.432	27326.12
574.794	27413.57
575.155	27347.13
575.516	27406.79
575.877	27473.68
576.238	27382.84
576.599	27434.82
576.96	27531.31
577.32	27546.9
577.681	27599.78
578.042	27623.74
578.403	27672.55
578.763	27524.08
579.124	27571.99
579.485	27767.24
579.845	27730.63
580.206	27703.73
580.566	27637.3
580.927	27720.68
581.287	27723.4
581.648	27596.39
582.008	27596.17
582.368	27651.76
582.728	27559.33
583.089	27642.27
583.449	27461.93
583.809	27623.96
584.169	27613.12
584.529	27449.96
584.889	27648.14
585.249	27488.37
585.609	27277.31
585.969	27471.88
586.329	27432.33
586.688	27494.47
587.048	27263.07
587.408	27292.45
587.768	27281.37
588.127	27273.92
588.487	27244.09
588.846	27279.57
589.206	27108.04
589.565	27267.14
589.925	27273.01
590.284	27158.21
590.643	27125.9
591.003	27066.69
591.362	27249.28
591.721	27217.65
592.08	27102.62
592.44	27226.01
592.799	27073.69
593.158	27015.62
593.517	26930.2
593.876	26936.98
594.235	27013.81
594.593	26885.68
594.952	26951.89
595.311	26898.78
595.67	27013.58
596.029	26930.2
596.387	27025.11
596.746	27161.15
597.104	26976.75
597.463	26716.87
597.822	26995.05
598.18	26945.56
598.538	26954.38
598.897	27025.79
599.255	26811.1
599.613	27131.77
599.972	26939.46
600.33	27134.71
600.688	26948.95
601.046	26925.9
601.404	27181.26
601.762	27001.83
602.12	27126.35
602.478	27108.04
602.836	27128.16
603.194	26809.75
603.552	27023.75
603.91	26967.71
604.268	27126.12
604.625	27052.45
604.983	27210.41
605.341	26949.63
605.698	27103.52
606.056	27214.48
606.413	27197.99
606.771	27208.15
607.128	27317.3
607.485	27168.61
607.843	27157.08
608.2	27391.65
608.557	27405.89
608.914	27384.87
609.272	27432.78
609.629	27503.29
609.986	27574.92
610.343	27486.11
610.7	27673.91
611.057	27509.39
611.414	27674.36
611.771	27712.1
612.127	27722.49
612.484	27619.22
612.841	27763.17
613.198	27716.39
613.554	27554.81
613.911	27934.92
614.267	27945.54
614.624	27753
614.98	27958.19
615.337	28113.44
615.693	28080
616.05	28012.43
616.406	28095.81
616.762	28018.08
617.118	28130.16
617.475	28150.28
617.831	28333.32
618.187	28158.19
618.543	28299.88
618.899	28413.09
619.255	28311.63
619.611	28283.61
619.967	28581
620.323	28458.74
620.678	28370.16
621.034	28394.34
621.39	28341.46
621.746	28470.95
622.101	28708.68
622.457	28519.98
622.812	28579.19
623.168	28539.42
623.523	28569.7
623.879	28634.11
624.234	28510.27
624.589	28584.39
624.945	28519.53
625.3	28601.34
625.655	28581.45
626.01	28695.57
626.365	28642.69
626.72	28449.93
627.075	28530.38
627.43	28525.63
627.785	28569.25
628.14	28619.87
628.495	28686.31
628.85	28630.04
629.205	28479.76
629.559	28667.1
629.914	28553.43
630.269	28592.98
630.623	28399.76
630.978	28445.86
631.332	28488.12
631.687	28520.89
632.041	28439.08
632.396	28440.44
632.75	28396.15
633.104	28492.87
633.459	28243.83
633.813	28283.15
634.167	28268.24
634.521	28209.26
634.875	28112.31
635.229	28231.86
635.583	28084.97
635.937	27897.85
636.291	28007.46
636.645	28056.27
636.999	27810.62
637.352	28114.12
637.706	27849.27
638.06	28008.81
638.413	27875.48
638.767	27827.35
639.121	27872.54
639.474	27822.38
639.828	27579.67
640.181	27786.9
640.534	27711.64
640.888	27606.34
641.241	27402.95
641.594	27472.55
641.947	27484.31
642.301	27386.46
642.654	27505.1
643.007	27433.46
643.36	27486.57
643.713	27375.61
644.066	27576.73
644.419	27322.28
644.771	26982.17
645.124	26745.34
645.477	26805.45
645.83	26723.87
646.182	26727.26
646.535	26729.3
646.888	26805.23
647.24	26630.32
647.593	26857.88
647.945	26718.45
648.298	26646.36
648.65	26482.3
649.002	26177.9
649.355	26195.3
649.707	26110.78
650.059	26097.45
650.411	26483.2
650.763	26743.76
651.115	27135.16
651.467	26969.74
651.819	26970.42
652.171	26923.19
652.523	26869.41
652.875	26908.28
653.227	26842.74
653.578	27055.16
653.93	26955.96
654.282	26740.14
654.633	26733.14
654.985	26790.31
655.337	26950.76
655.688	26942.4
656.039	26940.82
656.391	26652.24
656.742	26698.79
657.094	26725
657.445	26899.01
657.796	26861.95
658.147	26912.57
658.498	26925
658.849	26948.73
659.2	26748.73
659.551	26849.52
659.902	27076.18
660.253	26894.94
660.604	26976.07
660.955	26772.46
661.306	26998.44
661.656	26879.8
662.007	26891.78
662.358	26982.4
662.708	26980.59
663.059	26932.91
663.409	26713.7
663.76	26983.98
664.11	26964.32
664.461	27026.92
664.811	26979.23
665.161	26965
665.511	26951.89
665.862	27003.87
666.212	27088.61
666.562	27141.26
666.912	27001.38
667.262	26910.31
667.612	26974.49
667.962	27135.61
668.312	26858.33
668.662	27073.92
669.011	27092
669.361	26988.05
669.711	26924.77
670.06	26969.74
670.41	26955.05
670.76	26960.93
671.109	27051.1
671.459	26933.13
671.808	26945.34
672.157	26872.8
672.507	26902.4
672.856	26823.31
673.205	26805.91
673.554	26862.63
673.904	26859.46
674.253	26875.96
674.602	26745.57
674.951	26478
675.3	26242.3
675.649	26727.26
675.998	26859.24
676.346	26768.39
676.695	26775.85
677.044	26556.87
677.393	26653.14
677.741	26628.51
678.09	26630.09
678.438	26525.69
678.787	26616.98
679.135	26668.28
679.484	26374.5
679.832	26532.69
680.181	26472.81
680.529	26452.02
680.877	26409.53
681.225	26257.22
681.573	26555.06
681.922	26224.68
682.27	26333.15
682.618	26223.77
682.966	26036.21
683.314	26119.14
683.661	26000.73
684.009	25932.26
684.357	25842.99
684.705	25876.66
685.053	25956.66
685.4	25631.25
685.748	25665.6
686.095	25741.53
686.443	25601.64
686.79	25483.23
687.138	25587.18
687.485	25500.4
687.832	25303.35
688.18	25352.61
688.527	25183.12
688.874	25134.08
689.221	25111.49
689.568	24881.44
689.915	24996.69
690.262	24986.29
690.609	24869.23
690.956	24707.66
691.303	24746.07
691.65	24618.84
691.997	24551.05
692.344	24548.11
692.69	24340.89
693.037	24364.16
693.383	24182.25
693.73	24161.46
694.077	23994
694.423	23920.78
694.769	23882.82
695.116	23955.36
695.462	23780.9
695.808	23714.91
696.155	23758.75
696.501	23619.77
696.847	23494.13
697.193	23299.33
697.539	23269.28
697.885	23119.22
698.231	23113.35
698.577	23000.58
698.923	23058.43
699.269	22925.78
699.614	22808.5
699.96	22715.62
700.306	22707.03
700.651	22540.93
700.997	22561.72
701.342	22449.41
701.688	22321.5
702.033	22277.44
702.379	22209.19
702.724	22061.4
703.069	22063.21
703.415	21905.47
703.76	21883.1
704.105	21815.08
704.45	21842.19
704.795	21562.43
705.14	21675.42
705.485	21543.9
705.83	21414.18
706.175	21584.57
706.52	21364.47
706.865	21378.25
707.209	21328.08
707.554	21210.8
707.899	21190.69
708.243	21083.57
708.588	21119.95
708.932	20984.59
709.277	21001.99
709.621	20954.31
709.966	20810.36
710.31	20827.53
710.654	20731.04
710.998	20726.52
711.342	20761.54
711.687	20666.86
712.031	20627.54
712.375	20617.37
712.719	20467.09
713.063	20409.69
713.407	20575.11
713.75	20405.62
714.094	20453.53
714.438	20291.95
714.782	20373.76
715.125	20307.55
715.469	20302.57
715.812	20132.63
716.156	20185.97
716.499	20256.47
716.843	20122.47
717.186	20094.44
717.53	20167.21
717.873	20134.44
718.216	20051.28
718.559	20047.44
718.902	19884.05
719.246	19976.25
719.589	19969.47
719.932	19921.57
720.275	19867.78
720.617	20000.66
720.96	19818.74
721.303	19744.4
721.646	19789.14
721.989	19729.26
722.331	19860.33
722.674	19792.76
723.016	19745.07
723.359	19788.01
723.701	19806.32
724.044	19677.96
724.386	19663.27
724.729	19692.65
725.071	19695.81
725.413	19698.07
725.755	19626.21
726.097	19622.37
726.439	19604.74
726.782	19583.95
727.124	19752.31
727.465	19668.47
727.807	19576.72
728.149	19626.43
728.491	19526.32
728.833	19585.3
729.175	19589.37
729.516	19497.62
729.858	19528.58
730.199	19691.06
730.541	19515.7
730.882	19646.77
731.224	19593.89
731.565	19537.17
731.906	19646.32
732.248	19690.84
732.589	19694.91
732.93	19609.71
733.271	19649.94
733.612	19683.61
733.953	19662.82
734.294	19605.42
734.635	19559.77
734.976	19792.3
735.317	19649.94
735.658	19660.1
735.999	19666.88
736.339	19752.98
736.68	19782.81
737.021	19725.19
737.361	19853.09
737.702	19959.98
738.042	19860.1
738.383	19898.74
738.723	20031.39
739.063	20065.52
739.404	20106.42
739.744	20108.91
740.084	20218.96
740.424	20237.49
740.764	20156.36
741.104	20401.55
741.444	20225.06
741.784	20370.59
742.124	20605.39
742.464	20587.99
742.804	20454.66
743.143	20482.46
743.483	20815.78
743.823	20660.08
744.162	20856.91
744.502	20913.63
744.841	20976.23
745.181	21157.69
745.52	21147.98
745.86	21330.34
746.199	21509.77
746.538	21585.48
746.877	21777.56
747.216	21895.07
747.556	21912.25
747.895	22047.61
748.234	22247.38
748.573	22433.14
748.911	22380.03
749.25	22685.79
749.589	22751.77
749.928	23029.28
750.267	23172.55
750.605	23359.67
750.944	23415.71
751.283	23685.31
751.621	23900.9
751.96	23962.82
752.298	24259.76
752.636	24443.71
752.975	24670.59
753.313	24735.23
753.651	25211.37
753.989	25153.97
754.327	25466.96
754.666	25548.31
755.004	25967.51
755.342	26230.78
755.679	26379.02
756.017	26529.98
756.355	26948.95
756.693	27140.36
757.031	27376.29
757.368	27531.54
757.706	27840
758.044	28118.87
758.381	28353.44
758.719	28551.17
759.056	28924.49
759.394	29027.09
759.731	29163.36
760.068	29400.19
760.405	29638.37
760.743	29864.81
761.08	30053.96
761.417	30171.01
761.754	30411.23
762.091	30590.44
762.428	30764.67
762.765	30873.59
763.102	31138.9
763.438	31457.76
763.775	31393.36
764.112	31781.82
764.449	31930.52
764.785	32056.84
765.122	32091.19
765.458	32150.85
765.795	32449.37
766.131	32633.77
766.467	32804.17
766.804	32788.8
767.14	32928.91
767.476	33017.04
767.812	33128.22
768.148	33467.43
768.485	33424.26
768.821	33506.07
769.157	33574.99
769.492	33800.98
769.828	33938.15
770.164	33819.05
770.5	33835.1
770.836	33968.43
771.171	34005.72
771.507	34191.25
771.842	34036.45
772.178	34247.97
772.513	34191.7
772.849	34157.35
773.184	34395.08
773.519	34348.08
773.855	34398.7
774.19	34374.52
774.525	34238.03
774.86	34419.26
775.195	34404.8
775.53	34282.09
775.865	34139.95
776.2	34179.27
776.535	34089.78
776.87	34159.61
777.205	34099.72
777.539	34108.76
777.874	34244.13
778.209	33861.99
778.543	34079.84
778.878	33940.18
779.212	34022.66
779.547	33749.9
779.881	33991.71
780.215	33689.11
780.55	33826.06
780.884	33592.17
781.218	33532.96
781.552	33632.62
781.886	33490.25
782.22	33475.79
782.554	33419.06
782.888	33306.75
783.222	33264.04
783.556	33156.02
783.889	33048.23
784.223	32840.32
784.557	32884.39
784.89	32969.36
785.224	32952.64
785.557	32620.89
785.891	32728.91
786.224	32708.8
786.558	32634.23
786.891	32468.58
787.224	32330.73
787.557	32272.88
787.891	32304.29
788.224	32161.24
788.557	32218.42
788.89	32133.22
789.223	31998.31
789.556	31769.62
789.888	32001.93
790.221	31725.55
790.554	31706.34
790.887	31663.63
791.219	31532.11
791.552	31502.51
791.884	31363.98
792.217	31380.47
792.549	31291.44
792.882	31049.86
793.214	31105.91
793.546	31115.17
793.879	30869.75
794.211	30763.32
794.543	30911.33
794.875	30713.83
795.207	30746.37
795.539	30629.08
795.871	30756.76
796.203	30547.05
796.535	30245.14
796.867	30389.99
797.198	30211.69
797.53	30244.68
797.862	30033.84
798.193	30186.83
798.525	30011.7
798.856	30134.63
799.188	29700.29
799.519	29694.19
799.85	29653.29
800.182	29594.98
800.513	29773.28
800.844	29376.23
801.175	29623.68
801.506	29463.01
801.837	29321.09
802.168	29415.1
802.499	29381.88
802.83	29228.67
803.161	28999.29
803.491	29090.59
803.822	29196.58
804.153	28837.26
804.483	28819.86
804.814	28688.34
805.145	28756.14
805.475	28795.01
805.805	28738.74
806.136	28733.54
806.466	28551.62
806.796	28510.95
807.126	28298.75
807.457	28342.59
807.787	28447.9
808.117	28357.5
808.447	28220.78
808.777	28223.04
809.107	27953.45
809.436	27953.22
809.766	27962.26
810.096	27899.44
810.426	27716.16
810.755	27994.35
811.085	27882.94
811.414	27884.07
811.744	27638.43
812.073	27635.49
812.403	27613.34
812.732	27437.75
813.061	27670.74
813.39	27290.41
813.719	27290.19
814.049	27559.33
814.378	27413.35
814.707	27248.15
815.036	27207.93
815.365	27046.8
815.693	27046.58
816.022	27119.34
816.351	26901.72
816.68	26800.48
817.008	26974.49
817.337	26651.11
817.665	26846.36
817.994	26741.27
818.322	26904.66
818.651	26595.06
818.979	26670.99
819.307	26643.88
819.636	26660.82
819.964	26611.56
820.292	26586.7
820.62	26648.4
820.948	26635.29
821.276	26692.69
821.604	26560.49
821.932	26768.39
822.259	26766.81
822.587	26645.01
822.915	26620.15
823.243	26827.6
823.57	26579.47
823.898	26741.05
824.225	26682.29
824.553	26641.62
824.88	26571.56
825.207	26810.88
825.535	26721.84
825.862	26785.11
826.189	26710.77
826.516	26850.65
826.843	26948.95
827.17	26967.03
827.497	26851.33
827.824	26962.51
828.151	26898.78
828.478	26723.42
828.805	27039.35
829.131	26905.11
829.458	27026.01
829.785	26745.79
830.111	26853.81
830.438	27075.95
830.764	26834.83
831.09	26922.29
831.417	26807.04
831.743	26982.85
832.069	26823.08
832.395	26770.88
832.722	26984.66
833.048	26745.57
833.374	27004.09
833.7	26842.51
834.026	26965.68
834.351	26869.63
834.677	26799.35
835.003	26809.97
835.329	26979.46
835.654	26848.39
835.98	26744.89
836.306	26891.33
836.631	26680.48
836.956	26835.51
837.282	26765.91
837.607	26670.54
837.932	26762.06
838.258	26640.71
838.583	26574.05
838.908	26460.38
839.233	26556.65
839.558	26463.77
839.883	26368.4
840.208	26235.3
840.533	26378.35
840.858	26354.62
841.182	26274.39
841.507	26379.93
841.832	26123.66
842.156	26323.43
842.481	26246.37
842.805	26038.69
843.13	26024.91
843.454	26104.91
843.778	25962.76
844.103	25965.48
844.427	25893.61
844.751	25805.25
845.075	25797.8
845.399	25680.06
845.723	25553.28
846.047	25680.29
846.371	25528.2
846.695	25391.71
847.019	25327.75
847.343	25105.16
847.666	25111.94
847.99	25033.97
848.313	24830.14
848.637	24910.59
848.96	24756.24
849.284	24771.38
849.607	24518.73
849.931	24542.46
850.254	24345.18
850.577	24207.56
850.9	24080.55
851.223	24112.87
851.546	23970.95
851.869	23857.06
852.192	23860.45
852.515	23647.34
852.838	23627.01
853.161	23605.09
853.483	23457.74
853.806	23347.69
854.129	23356.5
854.451	23275.15
854.774	23126
855.096	23017.98
855.419	22956.29
855.741	23012.33
856.063	22838.33
856.385	22785.22
856.708	22715.62
857.03	22750.42
857.352	22711.55
857.674	22630.42
857.996	22458.45
858.318	22304.33
858.64	22444.66
858.961	22309.98
859.283	22239.02
859.605	22173.71
859.926	22208.51
860.248	22047.61
860.57	22032.02
860.891	21958.12
861.212	21865.47
861.534	21869.99
861.855	21739.6
862.176	21871.35
862.498	21687.17
862.819	21677.68
863.14	21673.61
863.461	21626.61
863.782	21638.36
864.103	21609.88
864.424	21466.84
864.745	21497.8
865.065	21411.7
865.386	21335.31
865.707	21375.54
866.027	21298.03
866.348	21251.93
866.668	21295.77
866.989	21212.15
867.309	21011.03
867.63	21144.36
867.95	21184.36
868.27	21007.64
868.59	20959.05
868.91	20892.16
869.23	20881.09
869.55	20889
869.87	20964.7
870.19	20818.04
870.51	20873.41
870.83	20784.82
871.15	20639.74
871.469	20691.49
871.789	20736.01
872.109	20728.1
872.428	20480.2
872.748	20671.6
873.067	20639.97
873.386	20625.05
873.706	20571.72
874.025	20466.64
874.344	20411.95
874.663	20465.28
874.982	20406.75
875.301	20329.47
875.62	20247.89
875.939	20226.87
876.258	20266.42
876.577	20144.39
876.896	20165.85
877.214	20055.57
877.533	20148.23
877.852	20075.23
878.17	20040.21
878.489	20068.23
878.807	19865.07
879.125	19951.17
879.444	19933.09
879.762	19825.98
880.08	19916.14
880.398	19730.16
880.716	19828.01
881.034	19728.8
881.352	19811.96
881.67	19747.33
881.988	19631.18
882.306	19569.26
882.624	19599.32
882.941	19448.81
883.259	19414.69
883.577	19508.47
883.894	19292.88
884.212	19334.69
884.529	19288.14
884.846	19235.71
885.164	19155.49
885.481	19192.09
885.798	19056.96
886.115	18932.67
886.432	19022.61
886.75	18960.01
887.067	19067.13
887.383	18883.4
887.7	18899.45
888.017	18820.35
888.334	18758.66
888.651	18691.99
888.967	18708.04
889.284	18672.79
889.6	18530.64
889.917	18434.83
890.233	18499.68
890.55	18430.08
890.866	18367.71
891.182	18305.79
891.498	18228.73
891.815	18191.67
892.131	18123.87
892.447	18082.29
892.763	18049.75
893.079	17998.91
893.395	17900.38
893.71	17870.77
894.026	17815.18
894.342	17826.25
894.657	17574.51
894.973	17600.27
895.289	17716.88
895.604	17551.01
895.92	17453.61
896.235	17417.68
896.55	17414.06
896.865	17261.52
897.181	17260.85
897.496	17259.26
897.811	17157.57
898.126	17024.02
898.441	17095.2
898.756	16932.04
899.071	16937.01
899.386	16870.8
899.7	16692.27
900.015	16630.58
900.33	16532.96
900.644	16450.92
900.959	16460.64
901.273	16411.6
901.588	16471.94
901.902	16316.46
902.216	16283.24
902.531	16230.82
902.845	16236.92
903.159	15955.12
903.473	15943.37
903.787	15975.46
904.101	15781.56
904.415	15850.94
904.729	15689.81
905.042	15625.18
905.356	15642.36
905.67	15603.94
905.984	15630.83
906.297	15532.3
906.611	15424.74
906.924	15417.28
907.237	15373.66
907.551	15341.35
907.864	15231.07
908.177	15238.07
908.491	15054.58
908.804	14936.84
909.117	14896.61
909.43	14733.23
909.743	14782.72
910.056	14828.82
910.368	14689.16
910.681	14712.89
910.994	14575.27
911.307	14485.55
911.619	14389.96
911.932	14479.9
912.244	14303.41
912.557	14288.27
912.869	14173.7
913.181	14213.92
913.494	14122.17
913.806	14016.41
914.118	13990.88
914.43	13973.47
914.742	13888.28
915.054	13848.05
915.366	13712.69
915.678	13700.71
915.99	13610.09
916.302	13618.46
916.613	13442.19
916.925	13536.65
917.236	13521.51
917.548	13328.97
917.859	13364
918.171	13262.08
918.482	13176.66
918.794	13187.73
919.105	13054.4
919.416	13015.53
919.727	13067.74
920.038	13017.34
920.349	12920.85
920.66	12801.75
920.971	12801.98
921.282	12758.37
921.593	12698.03
921.903	12652.15
922.214	12558.6
922.525	12529.22
922.835	12467.98
923.146	12454.42
923.456	12363.35
923.767	12398.37
924.077	12247.42
924.387	12246.06
924.697	12116.57
925.008	12084.03
925.318	12117.03
925.628	12097.59
925.938	12042.23
926.248	11852.85
926.558	11833.87
926.867	11836.81
927.177	11776.02
927.487	11614.21
927.796	11526.53
928.106	11606.53
928.416	11548.23
928.725	11487.66
929.034	11412.86
929.344	11447.89
929.653	11464.61
929.962	11290.16
930.271	11254.22
930.581	11243.83
930.89	11148.92
931.199	11067.34
931.508	11048.81
931.817	11117.05
932.125	10976.49
932.434	10909.37
932.743	10852.65
933.051	10800.22
933.36	10803.84
933.669	10766.78
933.977	10681.13
934.286	10731.3
934.594	10606.33
934.902	10574.47
935.21	10494.92
935.519	10443.4
935.827	10418.77
936.135	10381.93
936.443	10305.55
936.751	10239.79
937.059	10242.5
937.367	10133.58
937.674	10158.43
937.982	10185.55
938.29	10105.1
938.597	10054.93
938.905	9936.29
939.213	9929.74
939.52	9830.53
939.827	9923.64
940.135	9826.24
940.442	9774.04
940.749	9735.39
941.056	9728.61
941.363	9658.33
941.67	9668.28
941.977	9545.79
942.284	9459.69
942.591	9494.5
942.898	9417.44
943.205	9366.82
943.511	9307.16
943.818	9360.71
944.125	9265.8
944.431	9221.28
944.738	9186.48
945.044	9158.91
945.35	9148.06
945.657	9040.72
945.963	8996.66
946.269	8979.26
946.575	8891.35
946.881	8904.46
947.187	8896.32
947.493	8841.41
947.799	8781.52
948.105	8802.31
948.41	8698.13
948.716	8652.48
949.022	8617.68
949.327	8609.55
949.633	8438.03
949.938	8509.21
950.244	8482.09
950.549	8432.83
950.854	8435.99
951.16	8442.55
951.465	8310.35
951.77	8313.51
952.075	8274.87
952.38	8217.24
952.685	8212.04
952.99	8054.08
953.294	8097.47
953.599	8104.93
953.904	8013.86
954.209	7953.75
954.513	8002.78
954.818	7962.56
955.122	7954.42
955.426	7878.27
955.731	7803.69
956.035	7820.19
956.339	7759.85
956.643	7768.67
956.948	7648.44
957.252	7609.8
957.556	7632.17
957.86	7613.87
958.163	7551.72
958.467	7505.62
958.771	7514.21
959.075	7502.46
959.378	7379.3
959.682	7417.26
959.985	7371.39
960.289	7351.05
960.592	7276.02
960.896	7264.27
961.199	7194.67
961.502	7189.92
961.805	7175.01
962.108	7113.99
962.411	7098.17
962.714	7047.33
963.017	7045.07
963.32	7050.72
963.623	6962.36
963.926	6989.93
964.228	6889.59
964.531	6872.19
964.833	6882.59
965.136	6801.46
965.438	6798.97
965.741	6741.8
966.043	6723.5
966.345	6681.46
966.648	6646.44
966.95	6639.88
967.252	6546.33
967.554	6616.61
967.856	6609.37
968.158	6507.46
968.46	6497.51
968.761	6428.36
969.063	6404.18
969.365	6414.35
969.666	6398.08
969.968	6287.12
970.269	6325.09
970.571	6257.29
970.872	6303.17
971.174	6229.95
971.475	6249.38
971.776	6236.95
972.077	6141.14
972.378	6103.4
972.679	6103.4
972.98	6102.27
973.281	6047.13
973.582	6039.9
973.883	5975.72
974.183	6016.85
974.484	5955.15
974.785	5895.27
975.085	5885.55
975.386	5820.02
975.686	5830.86
975.986	5795.38
976.287	5835.16
976.587	5738.44
976.887	5698.89
977.187	5714.71
977.487	5657.31
977.787	5643.75
978.087	5558.78
978.387	5548.84
978.687	5557.42
978.987	5479.91
979.286	5505.9
979.586	5499.8
979.885	5481.49
980.185	5430.87
980.484	5408.5
980.784	5330.31
981.083	5379.8
981.382	5313.14
981.682	5360.37
981.981	5302.29
982.28	5215.74
982.579	5215.29
982.878	5206.7
983.177	5166.93
983.475	5125.35
983.774	5077.44
984.073	5084.22
984.372	5065.01
984.67	5001.73
984.969	5011.68
985.267	5014.39
985.566	4935.97
985.864	4965.58
986.162	4949.53
986.461	4905.24
986.759	4883.77
987.057	4876.99
987.355	4845.13
987.653	4803.77
987.951	4762.64
988.249	4750.67
988.547	4757.45
988.844	4683.78
989.142	4694.85
989.44	4625.92
989.737	4646.04
990.035	4651.91
990.332	4632.48
990.63	4588.64
990.927	4593.38
991.224	4518.81
991.521	4522.88
991.819	4551.12
992.116	4503.89
992.413	4440.84
992.71	4390.9
993.006	4426.38
993.303	4393.84
993.6	4386.83
993.897	4332.37
994.193	4337.34
994.49	4322.43
994.787	4242.43
995.083	4215.54
995.379	4175.77
995.676	4207.4
995.972	4193.62
996.268	4181.19
996.565	4096.9
996.861	4096.67
997.157	4045.37
997.453	4043.79
997.749	4051.93
998.044	4018.48
998.34	4005.83
998.636	4019.61
998.932	3968.31
999.227	3909.11
999.523	3933.51
999.818	3892.61
1000.114	3909.78
1000.409	3845.15
1000.704	3805.38
1001	3816.45
1001.295	3769.22
1001.59	3756.34
1001.885	3764.48
1002.18	3713.86
1002.475	3721.54
1002.77	3649.9
1003.065	3638.38
1003.359	3658.27
1003.654	3671.82
1003.949	3597.25
1004.243	3578.95
1004.538	3544.37
1004.832	3477.25
1005.127	3543.92
1005.421	3487.65
1005.715	3490.36
1006.009	3464.82
1006.304	3430.47
1006.598	3392.96
1006.892	3369.91
1007.186	3358.39
1007.48	3361.78
1007.773	3311.38
1008.067	3280.42
1008.361	3243.14
1008.655	3253.76
1008.948	3246.3
1009.242	3221.21
1009.535	3211.5
1009.829	3169.01
1010.122	3152.06
1010.415	3129.69
1010.708	3135.79
1011.001	3092.18
1011.295	3059.41
1011.588	3066.19
1011.881	3031.39
1012.173	2996.36
1012.466	3031.62
1012.759	3005.63
1013.052	2980.32
1013.344	2953.88
1013.637	2951.39
1013.93	2873.43
1014.222	2882.69
1014.514	2894.9
1014.807	2844.73
1015.099	2846.99
1015.391	2801.79
1015.683	2824.39
1015.976	2769.25
1016.268	2728.35
1016.56	2767.22
1016.851	2736.48
1017.143	2722.7
1017.435	2662.13
1017.727	2654.9
1018.018	2656.94
1018.31	2602.02
1018.602	2608.35
1018.893	2576.71
1019.185	2533.55
1019.476	2573.1
1019.767	2548.46
1020.058	2489.26
1020.35	2519.76
1020.641	2496.26
1020.932	2501.01
1021.223	2457.84
1021.514	2463.49
1021.804	2432.31
1022.095	2410.61
1022.386	2391.63
1022.677	2356.6
1022.967	2345.76
1023.258	2320.45
1023.548	2320.45
1023.839	2277.51
1024.129	2283.84
1024.419	2245.42
1024.709	2246.1
1025	2269.15
1025.29	2247.68
1025.58	2184.86
1025.87	2135.37
1026.16	2173.11
1026.449	2183.28
1026.739	2148.47
1027.029	2127.46
1027.319	2129.04
1027.608	2094.69
1027.898	2095.37
1028.187	2047.69
1028.477	2044.3
1028.766	2018.76
1029.055	2023.96
1029.344	2054.69
1029.634	1996.84
1029.923	1961.81
1030.212	1969.95
1030.501	1926.56
1030.79	1943.28
1031.078	1907.35
1031.367	1896.05
1031.656	1874.58
1031.945	1848.6
1032.233	1881.36
1032.522	1857.41
1032.81	1843.17
1033.099	1792.78
1033.387	1837.07
1033.675	1793.23
1033.963	1796.85
1034.251	1802.72
1034.54	1777.86
1034.828	1717.98
1035.116	1713.01
1035.403	1728.82
1035.691	1674.36
1035.979	1713.46
1036.267	1694.02
1036.554	1654.7
1036.842	1623.97
1037.129	1670.3
1037.417	1645.66
1037.704	1602.27
1037.992	1622.39
1038.279	1607.02
1038.566	1595.95
1038.853	1595.95
1039.14	1595.95
