Data from 3278_FLMS001491_001.txt Node
Date: Thu Apr 19 15:15:57 BST 2018
User: hsy
Spectrometer: FLMS00149
Trigger mode: 0
Integration Time (sec): 1.000000E-2
Scans to average: 10
Electric dark correction enabled: true
Nonlinearity correction enabled: false
Boxcar width: 0
XAxis mode: Wavelengths
Number of Pixels in Spectrum: 2048
>>>>>Begin Spectral Data<<<<<
341.393	-13.87
341.776	-13.87
342.16	-13.87
342.543	-76.47
342.927	-62.46
343.31	-63.81
343.693	-73.98
344.077	-55.22
344.46	-75.34
344.843	-49.35
345.226	-50.25
345.61	-44.83
345.993	-10.48
346.376	-6.86
346.759	31.78
347.142	15.96
347.525	46.92
347.908	58.9
348.291	75.85
348.674	95.96
349.057	104.77
349.44	135.5
349.823	142.51
350.206	166.01
350.588	229.51
350.971	260.47
351.354	277.42
351.737	267.93
352.119	297.08
352.502	297.76
352.884	297.53
353.267	306.57
353.65	315.39
354.032	338.21
354.414	343.41
354.797	337.53
355.179	351.77
355.562	340.02
355.944	346.57
356.326	375.95
356.709	368.49
357.091	390.64
357.473	384.76
357.855	377.76
358.238	360.13
358.62	380.7
359.002	382.28
359.384	382.73
359.766	379.34
360.148	384.54
360.53	382.73
360.912	372.79
361.294	379.34
361.676	376.85
362.057	382.28
362.439	358.78
362.821	381.15
363.203	375.5
363.584	375.95
363.966	364.43
364.348	352.45
364.729	361.71
365.111	373.69
365.493	370.75
365.874	350.87
366.256	363.07
366.637	362.17
367.019	343.41
367.4	370.08
367.781	364.2
368.163	342.96
368.544	364.65
368.925	362.84
369.306	364.88
369.688	353.13
370.069	368.72
370.45	369.62
370.831	359.91
371.212	349.96
371.593	347.48
371.974	350.19
372.355	359.23
372.736	380.47
373.117	380.24
373.498	346.35
373.879	360.36
374.26	378.66
374.641	374.37
375.021	374.59
375.402	380.24
375.783	376.63
376.163	387.02
376.544	369.17
376.925	377.76
377.305	398.55
377.686	381.15
378.066	393.35
378.447	387.7
378.827	393.8
379.208	405.33
379.588	391.09
379.968	378.66
380.349	414.59
380.729	382.05
381.109	396.29
381.489	391.54
381.87	401.03
382.25	436.29
382.63	416.4
383.01	409.4
383.39	409.62
383.77	422.73
384.15	403.52
384.53	415.5
384.91	437.64
385.29	422.73
385.67	434.48
386.049	428.6
386.429	410.53
386.809	431.09
387.189	437.42
387.568	441.71
387.948	470.64
388.328	443.52
388.707	445.78
389.087	449.17
389.466	444.65
389.846	454.59
390.225	462.28
390.605	460.69
390.984	468.15
391.363	478.32
391.743	446.46
392.122	459.56
392.501	489.39
392.881	479.9
393.26	479
393.639	495.04
394.018	480.35
394.397	487.59
394.776	483.52
395.155	470.19
395.534	509.05
395.913	539.11
396.292	539.79
396.671	486
397.05	514.25
397.429	500.92
397.808	505.89
398.186	526.68
398.565	525.1
398.944	512.22
399.323	535.95
399.701	524.87
400.08	532.56
400.458	517.87
400.837	540.24
401.215	572.56
401.594	566.23
401.972	566
402.351	577.53
402.729	556.28
403.107	577.75
403.486	571.43
403.864	575.49
404.242	569.39
404.62	568.94
404.999	597.41
405.377	596.51
405.755	599.22
406.133	623.63
406.511	600.35
406.889	617.07
407.267	626.34
407.645	628.83
408.023	647.81
408.401	634.93
408.779	642.61
409.156	658.88
409.534	671.31
409.912	661.14
410.29	677.41
410.667	686
411.045	710.41
411.422	700.01
411.8	677.64
412.178	695.26
412.555	715.6
412.933	753.57
413.31	736.39
413.687	747.92
414.065	770.06
414.442	762.83
414.819	770.29
415.197	770.74
415.574	787.69
415.951	796.73
416.328	812.1
416.705	805.77
417.082	787.01
417.46	806
417.837	812.32
418.214	816.16
418.591	813
418.967	834.47
419.344	827.01
419.721	831.08
420.098	847.12
420.475	834.02
420.852	892.32
421.228	861.81
421.605	898.87
421.982	886.45
422.358	888.71
422.735	901.81
423.111	907.24
423.488	896.84
423.864	921.47
424.241	941.13
424.617	940.23
424.994	941.36
425.37	966.9
425.746	951.98
426.123	951.53
426.499	985.88
426.875	996.73
427.251	996.05
427.627	1020
428.003	1020
428.379	1010.51
428.756	1030.62
429.132	1056.84
429.507	1067.68
429.883	1076.27
430.259	1081.47
430.635	1121.02
431.011	1095.71
431.387	1138.87
431.763	1133.9
432.138	1149.94
432.514	1159.66
432.89	1176.83
433.265	1217.51
433.641	1229.71
434.016	1217.96
434.392	1235.81
434.767	1254.12
435.143	1248.7
435.518	1274.23
435.894	1267.45
436.269	1285.53
436.644	1300.67
437.02	1326.66
437.395	1357.85
437.77	1337.51
438.145	1354.91
438.52	1367.34
438.895	1404.17
439.271	1398.75
439.646	1407.34
440.021	1445.98
440.395	1430.39
440.77	1420.44
441.145	1435.81
441.52	1471.29
441.895	1469.26
442.27	1471.06
442.645	1453.21
443.019	1479.2
443.394	1495.02
443.769	1487.33
444.143	1487.56
444.518	1527.33
444.892	1528.69
445.267	1523.94
445.641	1560.1
446.016	1549.03
446.39	1595.58
446.764	1580.89
447.139	1582.02
447.513	1591.29
447.887	1617.27
448.262	1609.14
448.636	1639.65
449.01	1615.24
449.384	1640.32
449.758	1655.24
450.132	1720.55
450.506	1698.4
450.88	1695.69
451.254	1733.65
451.628	1750.83
452.002	1735.24
452.376	1767.78
452.75	1811.17
453.123	1792.18
453.497	1827.89
453.871	1819.3
454.244	1906.76
454.618	1918.73
454.992	1935.23
455.365	1933.88
455.739	1971.16
456.112	1997.38
456.486	2024.72
456.859	2044.61
457.232	2073.31
457.606	2067.21
457.979	2114.89
458.352	2147.2
458.725	2131.16
459.099	2158.73
459.472	2206.41
459.845	2265.62
460.218	2263.58
460.591	2291.15
460.964	2332.28
461.337	2368.21
461.71	2417.93
462.083	2421.09
462.456	2426.74
462.829	2454.99
463.201	2516.69
463.574	2489.34
463.947	2548.55
464.32	2575.44
464.692	2579.73
465.065	2626.51
465.438	2647.08
465.81	2660.18
466.183	2685.27
466.555	2743.12
466.928	2749.9
467.3	2796.68
467.672	2840.52
468.045	2872.38
468.417	2920.97
468.789	2908.99
469.161	2965.49
469.534	2988.99
469.906	3042.77
470.278	3092.49
470.65	3125.93
471.022	3196.22
471.394	3207.29
471.766	3233.5
472.138	3288.87
472.51	3386.94
472.882	3394.18
473.253	3433.72
473.625	3504.23
473.997	3554.17
474.369	3572.7
474.74	3618.13
475.112	3713.04
475.484	3729.76
475.855	3798.01
476.227	3871.45
476.598	3966.82
476.97	4052.92
477.341	4116.87
477.713	4174.49
478.084	4203.19
478.455	4320.25
478.827	4360.48
479.198	4456.52
479.569	4532.23
479.94	4586.91
480.311	4700.81
480.682	4840.24
481.053	4935.15
481.424	5014.7
481.795	5072.55
482.166	5145.09
482.537	5202.26
482.908	5355.25
483.279	5474.35
483.65	5559.32
484.021	5727.67
484.391	5813.32
484.762	5862.59
485.133	5930.61
485.503	6099.64
485.874	6216.47
486.244	6389.58
486.615	6524.04
486.985	6568.1
487.356	6738.04
487.726	6838.61
488.097	7002.22
488.467	7080.63
488.837	7265.03
489.207	7378.03
489.578	7513.16
489.948	7733.95
490.318	7853.95
490.688	7923.32
491.058	8105.24
491.428	8293.26
491.798	8507.71
492.168	8666.35
492.538	8759.91
492.908	8954.71
493.278	9083.97
493.648	9233.34
494.017	9443.28
494.387	9602.15
494.757	9770.51
495.126	9855.02
495.496	10045.3
495.866	10241.91
496.235	10397.16
496.605	10618.39
496.974	10792.63
497.344	10992.39
497.713	11202.33
498.082	11367.07
498.452	11558.93
498.821	11721.87
499.19	11874.63
499.559	12112.59
499.928	12271.68
500.298	12518.23
500.667	12728.85
501.036	12799.58
501.405	13063.98
501.774	13201.15
502.143	13508.71
502.512	13626.9
502.88	13889.04
503.249	14032.99
503.618	14267.79
503.987	14329.03
504.356	14669.59
504.724	14806.76
505.093	15061.89
505.462	15165.62
505.83	15374.43
506.199	15609
506.567	15847.86
506.936	15959.95
507.304	16295.08
507.672	16412.14
508.041	16489.2
508.409	16818
508.777	17048.28
509.145	17323.3
509.514	17319.46
509.882	17549.28
510.25	17677.19
510.618	17861.82
510.986	17977.3
511.354	18050.97
511.722	18392.65
512.09	18531.18
512.458	18696.6
512.826	18808.23
513.193	18893.66
513.561	19017.95
513.929	19223.82
514.297	19397.6
514.664	19531.83
515.032	19650.25
515.4	19761.2
515.767	19937.7
516.135	19992.61
516.502	19907.64
516.869	20333.17
517.237	20412.71
517.604	20252.26
517.972	20671.69
518.339	20649.32
518.706	20760.95
519.073	20798.01
519.44	20854.96
519.808	21095.18
520.175	21170.66
520.542	21414.72
520.909	21499.24
521.276	21543.76
521.643	21822.62
522.009	21771.77
522.376	21878.21
522.743	22024.19
523.11	22102.61
523.477	22357.52
523.843	22292.21
524.21	22628.25
524.577	22760.45
524.943	22742.37
525.31	22712.76
525.676	22937.39
526.043	23093.09
526.409	23110.49
526.776	23322.01
527.142	23164.73
527.508	23391.84
527.874	23553.42
528.241	23524.04
528.607	23561.56
528.973	23805.39
529.339	23686.3
529.705	23977.36
530.071	23960.42
530.437	23875.9
530.803	24198.15
531.169	24174.19
531.535	23971.49
531.901	24176.45
532.267	24179.62
532.632	24178.04
532.998	24249.67
533.364	24301.2
533.73	24154.08
534.095	24310.69
534.461	24379.39
534.826	24278.6
535.192	24371.48
535.557	24467.75
535.923	24293.97
536.288	24344.13
536.653	24457.35
537.019	24229.56
537.384	24369.9
537.749	24293.51
538.114	24251.93
538.479	24212.84
538.845	24179.84
539.21	24185.49
539.575	24015.33
539.94	24001.54
540.305	24074.76
540.67	24044.03
541.034	24101.43
541.399	24017.81
541.764	23999.28
542.129	23887.65
542.494	23938.72
542.858	23961.09
543.223	23744.15
543.587	23823.7
543.952	23786.86
544.316	23729.69
544.681	23695.56
545.045	23704.83
545.41	23684.72
545.774	23514.55
546.138	23417.83
546.503	23448.11
546.867	23486.08
547.231	23456.47
547.595	23370.15
547.959	23437.27
548.324	23357.04
548.688	23322.47
549.052	23287.44
549.416	23206.99
549.779	23117.05
550.143	23066.43
550.507	23143.26
550.871	23030.5
551.235	23035.92
551.599	23227.55
551.962	22943.72
552.326	22929.93
552.689	22896.71
553.053	22814
553.417	22836.6
553.78	22982.59
554.143	22854.91
554.507	22859.2
554.87	22775.81
555.234	22805.42
555.597	22643.61
555.96	22695.82
556.323	22764.97
556.686	22687.91
557.05	22804.51
557.413	22707.57
557.776	22589.83
558.139	22735.59
558.502	22708.47
558.865	22626.44
559.228	22825.76
559.59	22705.98
559.953	22613.56
560.316	22832.08
560.679	22769.94
561.041	22749.15
561.404	22793.67
561.767	23014.9
562.129	22750.28
562.492	22967.45
562.854	22950.95
563.217	22884.51
563.579	22904.17
563.941	23030.27
564.304	23019.65
564.666	23072.3
565.028	23104.62
565.39	23020.33
565.753	23221.45
566.115	23192.75
566.477	23246.31
566.839	23259.87
567.201	23363.59
567.563	23312.52
567.925	23422.8
568.287	23479.07
568.648	23458.51
569.01	23435.23
569.372	23705.05
569.734	23647.2
570.095	23734.66
570.457	23824.15
570.819	23822.34
571.18	23733.08
571.542	23914.77
571.903	23869.34
572.265	23931.94
572.626	23923.81
572.987	23976.01
573.349	24082.22
573.71	24085.61
574.071	24096.91
574.432	24230.24
574.794	24191.82
575.155	24285.83
575.516	24198.83
575.877	24293.74
576.238	24238.15
576.599	24330.12
576.96	24405.38
577.32	24351.82
577.681	24331.7
578.042	24456.9
578.403	24383.23
578.763	24426.62
579.124	24293.74
579.485	24431.14
579.845	24555.65
580.206	24411.48
580.566	24428.65
580.927	24492.38
581.287	24459.16
581.648	24441.31
582.008	24418.03
582.368	24372.38
582.728	24324.25
583.089	24325.6
583.449	24367.41
583.809	24267.07
584.169	24376.45
584.529	24260.29
584.889	24353.63
585.249	24232.72
585.609	24135.55
585.969	24328.77
586.329	24091.26
586.688	24226.62
587.048	24102.78
587.408	24185.04
587.768	24033.41
588.127	23914.54
588.487	24031.15
588.846	24125.38
589.206	23845.84
589.565	23910.7
589.925	24078.15
590.284	23892.62
590.643	23860.08
591.003	23992.73
591.362	24101.88
591.721	23861.21
592.08	23859.4
592.44	24052.62
592.799	23913.18
593.158	23875.45
593.517	23759.29
593.876	23917.03
594.235	23802.23
594.593	23726.07
594.952	23795
595.311	23694.89
595.67	23751.83
596.029	23797.03
596.387	23775.79
596.746	23913.64
597.104	23738.95
597.463	23637.03
597.822	23780.76
598.18	23702.57
598.538	23638.16
598.897	23781.44
599.255	23586.19
599.613	23847.2
599.972	23701.89
600.33	23725.85
600.688	23613.31
601.046	23659.63
601.404	23791.38
601.762	23732.85
602.12	23726.75
602.478	23905.95
602.836	23884.03
603.194	23688.56
603.552	23700.99
603.91	23770.82
604.268	23795.9
604.625	23753.41
604.983	23815.56
605.341	23598.84
605.698	23856.46
606.056	23978.27
606.413	23717.03
606.771	24029.34
607.128	23863.47
607.485	23873.41
607.843	23860.98
608.2	23961.77
608.557	23984.14
608.914	23890.13
609.272	24005.61
609.629	24123.8
609.986	24120.64
610.343	24014.43
610.7	24258.49
611.057	24197.92
611.414	24127.87
611.771	24206.06
612.127	24308.2
612.484	24342.33
612.841	24339.16
613.198	24357.69
613.554	24298.49
613.911	24446.73
614.267	24481.31
614.624	24466.39
614.98	24401.08
615.337	24592.71
615.693	24595.65
616.05	24624.13
616.406	24780.28
616.762	24677.91
617.118	24590.46
617.475	24637.01
617.831	24756.78
618.187	24836.55
618.543	24860.28
618.899	24913.16
619.255	24856.66
619.611	24839.94
619.967	25007.62
620.323	24936.43
620.678	24883.55
621.034	24848.3
621.39	24932.59
621.746	24929.43
622.101	25293.49
622.457	24982.08
622.812	25107.5
623.168	25161.06
623.523	25112.48
623.879	25204
624.234	25018.47
624.589	25178.91
624.945	25189.99
625.3	25183.43
625.655	25272.7
626.01	25246.94
626.365	25298.23
626.72	25168.07
627.075	25156.99
627.43	25182.98
627.785	25135.07
628.14	25138.46
628.495	25165.58
628.85	25088.3
629.205	25180.95
629.559	25264.56
629.914	25091.23
630.269	25076.09
630.623	25027.51
630.978	24956.55
631.332	25163.77
631.687	25087.39
632.041	25046.26
632.396	25153.6
632.75	24869.32
633.104	25033.38
633.459	24916.55
633.813	24850.34
634.167	24890.11
634.521	24870
634.875	24943.89
635.229	24844.01
635.583	24548.87
635.937	24691.7
636.291	24657.57
636.645	24701.41
636.999	24594.97
637.352	24594.07
637.706	24422.55
638.06	24566.5
638.413	24447.86
638.767	24401.08
639.121	24434.08
639.474	24418.03
639.828	24463.23
640.181	24368.31
640.534	24374.19
640.888	24283.34
641.241	24216.91
641.594	24235.66
641.947	24292.16
642.301	24127.19
642.654	24145.72
643.007	24127.64
643.36	24212.39
643.713	24200.41
644.066	24264.36
644.419	24041.99
644.771	23775.56
645.124	23683.59
645.477	23554.1
645.83	23586.64
646.182	23508.68
646.535	23487.89
646.888	23606.07
647.24	23550.48
647.593	23745.51
647.945	23667.32
648.298	23467.32
648.65	23285.18
649.002	23291.96
649.355	23080.66
649.707	22949.59
650.059	22962.25
650.411	23338.06
650.763	23591.16
651.115	23891.04
651.467	23804.04
651.819	23793.41
652.171	23769.69
652.523	23707.77
652.875	23754.77
653.227	23588.22
653.578	23851.04
653.93	23853.3
654.282	23738.73
654.633	23720.42
654.985	23794.77
655.337	23741.66
655.688	23708.9
656.039	23754.77
656.391	23556.58
656.742	23630.71
657.094	23646.98
657.445	23662.8
657.796	23650.14
658.147	23630.71
658.498	23667.77
658.849	23829.35
659.2	23625.51
659.551	23694.43
659.902	23926.74
660.253	23745.73
660.604	23859.85
660.955	23681.33
661.306	23924.26
661.656	23841.1
662.007	23764.26
662.358	23782.34
662.708	23802
663.059	23868.44
663.409	23648.78
663.76	23882.45
664.11	23913.18
664.461	23931.04
664.811	23969.23
665.161	23851.04
665.511	23865.05
665.862	23949.57
666.212	23964.03
666.562	23993.18
666.912	23947.53
667.262	23896.24
667.612	23848.55
667.962	24031.37
668.312	23964.03
668.662	23990.24
669.011	24029.11
669.361	23938.49
669.711	24022.11
670.06	23946.4
670.41	23895.11
670.76	23881.55
671.109	23995.89
671.459	23973.52
671.808	23936.01
672.157	23957.03
672.507	23685.17
672.856	23858.5
673.205	23839.74
673.554	23811.49
673.904	23778.73
674.253	23893.75
674.602	23806.07
674.951	23465.96
675.3	23342.13
675.649	23772.17
675.998	23807.2
676.346	23737.37
676.695	23827.99
677.044	23614.44
677.393	23686.75
677.741	23685.62
678.09	23571.27
678.438	23566.3
678.787	23621.22
679.135	23662.8
679.484	23419.19
679.832	23506.19
680.181	23371.05
680.529	23460.77
680.877	23307.1
681.225	23246.08
681.573	23510.48
681.922	23302.58
682.27	23261.22
682.618	23287.89
682.966	23196.82
683.314	23162.24
683.661	23098.06
684.009	23051.29
684.357	22944.17
684.705	22953.21
685.053	22854
685.4	22735.59
685.748	22788.24
686.095	22693.78
686.443	22667.12
686.79	22672.54
687.138	22646.78
687.485	22659.43
687.832	22508.02
688.18	22474.35
688.527	22380.57
688.874	22333.57
689.221	22293.11
689.568	22155.72
689.915	22156.39
690.262	22198.43
690.609	22054.02
690.956	21903.97
691.303	22002.5
691.65	21832.11
691.997	21725.67
692.344	21643.87
692.69	21637.54
693.037	21651.55
693.383	21438.45
693.73	21506.92
694.077	21312.58
694.423	21222.86
694.769	21194.39
695.116	21110.77
695.462	21019.93
695.808	20933.38
696.155	21020.38
696.501	20804.79
696.847	20857.67
697.193	20618.36
697.539	20694.51
697.885	20509.43
698.231	20399.38
698.577	20391.47
698.923	20370.68
699.269	20166.62
699.614	20208.42
699.96	20147.41
700.306	20073.29
700.651	19900.86
700.997	19781.32
701.342	19797.81
701.688	19783.8
702.033	19651.83
702.379	19573.41
702.724	19534.99
703.069	19571.83
703.415	19277.37
703.76	19331.38
704.105	19214.78
704.45	19154.44
704.795	19158.96
705.14	19150.6
705.485	19175.68
705.83	18888.68
706.175	19039.19
706.52	18857.27
706.865	18870.83
707.209	18821.57
707.554	18793.55
707.899	18765.75
708.243	18655.02
708.588	18591.06
708.932	18460.22
709.277	18562.59
709.621	18438.07
709.966	18329.15
710.31	18451.18
710.654	18283.73
710.998	18304.07
711.342	18377.06
711.687	18238.53
712.031	18238.08
712.375	18100.46
712.719	18116.95
713.063	18033.34
713.407	18164.41
713.75	18000.57
714.094	18033.11
714.438	17921.48
714.782	18033.57
715.125	17834.93
715.469	18113.11
715.812	17911.08
716.156	17811.42
716.499	17908.14
716.843	17824.31
717.186	17712.22
717.53	17822.72
717.873	17754.25
718.216	17784.08
718.559	17614.14
718.902	17530.75
719.246	17648.26
719.589	17571.43
719.932	17527.14
720.275	17603.52
720.617	17528.49
720.96	17484.88
721.303	17546.35
721.646	17646.68
721.989	17493.47
722.331	17629.73
722.674	17499.79
723.016	17533.01
723.359	17505.44
723.701	17437.65
724.044	17436.07
724.386	17272.23
724.729	17460.47
725.071	17427.25
725.413	17414.6
725.755	17404.66
726.097	17400.36
726.439	17367.82
726.782	17280.14
727.124	17474.48
727.465	17419.12
727.807	17422.73
728.149	17350.42
728.491	17381.83
728.833	17337.99
729.175	17410.3
729.516	17359.01
729.858	17409.85
730.199	17456.18
730.541	17326.24
730.882	17354.49
731.224	17515.16
731.565	17358.78
731.906	17434.49
732.248	17472.22
732.589	17357.42
732.93	17409.18
733.271	17451.43
733.612	17516.06
733.953	17526.01
734.294	17512
734.635	17449.4
734.976	17610.98
735.317	17570.3
735.658	17636.29
735.999	17663.86
736.339	17685.1
736.68	17597.87
737.021	17677.42
737.361	17587.25
737.702	17822.95
738.042	17800.35
738.383	17788.6
738.723	17881.7
739.063	17909.05
739.404	17965.09
739.744	17974.58
740.084	18013.9
740.424	18082.15
740.764	18187.91
741.104	18216.39
741.444	18188.14
741.784	18228.59
742.124	18399.66
742.464	18430.17
742.804	18407.57
743.143	18427.23
743.483	18737.95
743.823	18573.89
744.162	18716.71
744.502	18896.14
744.841	18974.11
745.181	19101.33
745.52	19033.99
745.86	19256.13
746.199	19404.15
746.538	19493.41
746.877	19645.27
747.216	19744.25
747.556	19923.01
747.895	20062.66
748.234	20124.13
748.573	20258.37
748.911	20450.22
749.25	20637.11
749.589	20720.5
749.928	20873.26
750.267	21077.78
750.605	21217.89
750.944	21446.58
751.283	21597.54
751.621	21831.88
751.96	21914.37
752.298	22206.56
752.636	22429.16
752.975	22523.16
753.313	22707.11
753.651	23049.25
753.989	23147.1
754.327	23498.96
754.666	23659.63
755.004	23863.02
755.342	24096.23
755.679	24267.98
756.017	24496.9
756.355	24898.92
756.693	25046.04
757.031	25407.83
757.368	25512.92
757.706	25804.43
758.044	25889.18
758.381	26242.62
758.719	26363.06
759.056	26845.09
759.394	26925.31
759.731	27128.02
760.068	27148.81
760.405	27600.55
760.743	27746.3
761.08	27934.1
761.417	28138.16
761.754	28332.28
762.091	28559.39
762.428	28632.38
762.765	28822.43
763.102	29091.13
763.438	29229.2
763.775	29387.17
764.112	29708.29
764.449	29946.47
764.785	30059.46
765.122	30071.44
765.458	30234.6
765.795	30476.63
766.131	30622.84
766.467	30839.78
766.804	30763.63
767.14	31006.78
767.476	31129.04
767.812	31216.72
768.148	31449.94
768.485	31465.53
768.821	31415.81
769.157	31569.48
769.492	31675.69
769.828	31907.1
770.164	31701.91
770.5	31887.66
770.836	32002.01
771.171	32103.7
771.507	32091.5
771.842	32001.33
772.178	32117.26
772.513	32149.35
772.849	32298.05
773.184	32192.52
773.519	32375.56
773.855	32323.13
774.19	32437.48
774.525	32383.92
774.86	32479.06
775.195	32402.91
775.53	32440.87
775.865	32477.48
776.2	32294.89
776.535	32331.95
776.87	32348.9
777.205	32313.19
777.539	32323.59
777.874	32328.56
778.209	32117.49
778.543	32166.75
778.878	32071.39
779.212	32199.97
779.547	31881.56
779.881	32012.63
780.215	31860.09
780.55	32072.52
780.884	31862.35
781.218	31973.99
781.552	31928.12
781.886	31813.09
782.22	31587.33
782.554	31638.18
782.888	31510.05
783.222	31562.7
783.556	31317.06
783.889	31345.08
784.223	31232.31
784.557	31279.77
784.89	31357.96
785.224	31123.62
785.557	31031.42
785.891	31009.27
786.224	31054.47
786.558	30975.6
786.891	30773.8
787.224	30668.94
787.557	30644.08
787.891	30641.6
788.224	30557.08
788.557	30468.72
788.89	30503.29
789.223	30509.4
789.556	30255.16
789.888	30141.27
790.221	29967.71
790.554	30045.45
790.887	29885.91
791.219	29830.09
791.552	29909.64
791.884	29733.14
792.217	29708.29
792.549	29622.87
792.882	29427.62
793.214	29415.86
793.546	29477.56
793.879	29305.13
794.211	29056.78
794.543	29368.18
794.875	29196.66
795.207	29188.07
795.539	29129.32
795.871	29047.29
796.203	28959.61
796.535	28765.03
796.867	28817.46
797.198	28659.5
797.53	28639.39
797.862	28441.2
798.193	28523.46
798.525	28360.98
798.856	28530.01
799.188	28113.98
799.519	28131.38
799.85	28166.63
800.182	28123.02
800.513	28231.94
800.844	27941.1
801.175	28044.83
801.506	28107.42
801.837	27918.28
802.168	27861.78
802.499	27697.04
802.83	27687.55
803.161	27434.45
803.491	27597.16
803.822	27569.36
804.153	27344.06
804.483	27289.59
804.814	27176.6
805.145	27291.63
805.475	27282.81
805.805	27115.59
806.136	27211.18
806.466	27060.45
806.796	27066.32
807.126	26877.4
807.457	26928.92
807.787	26915.14
808.117	26890.06
808.447	26723.73
808.777	26876.27
809.107	26621.81
809.436	26518.09
809.766	26541.14
810.096	26536.39
810.426	26403.51
810.755	26583.17
811.085	26332.56
811.414	26408.26
811.744	26294.14
812.073	26286.68
812.403	26147.93
812.732	26078.33
813.061	26322.39
813.39	26040.81
813.719	25939.57
814.049	26124.88
814.378	26072.68
814.707	25900.7
815.036	25892.34
815.365	25778.22
815.693	25738
816.022	25523.76
816.351	25439.92
816.68	25472.69
817.008	25618.45
817.337	25312.24
817.665	25373.94
817.994	25396.76
818.322	25462.3
818.651	25279.93
818.979	25193.6
819.307	25223.88
819.636	25224.56
819.964	24982.99
820.292	25090.33
820.62	25006.72
820.948	25262.53
821.276	25182.98
821.604	25147.95
821.932	25312.7
822.259	25281.28
822.587	25118.12
822.915	25149.99
823.243	25285.35
823.57	25101.85
823.898	25276.54
824.225	25224.34
824.553	25140.72
824.88	25124
825.207	25326.48
825.535	25236.77
825.862	25395.41
826.189	25174.62
826.516	25467.04
826.843	25459.36
827.17	25419.81
827.497	25377.55
827.824	25434.27
828.151	25479.7
828.478	25394.5
828.805	25556.53
829.131	25542.75
829.458	25546.59
829.785	25247.61
830.111	25349.76
830.438	25530.54
830.764	25445.57
831.09	25553.59
831.417	25375.07
831.743	25637.66
832.069	25515.4
832.395	25304.56
832.722	25568.28
833.048	25417.78
833.374	25580.26
833.7	25345.46
834.026	25467.95
834.351	25398.34
834.677	25549.98
835.003	25487.38
835.329	25398.8
835.654	25466.59
835.98	25229.76
836.306	25453.48
836.631	25281.28
836.956	25372.13
837.282	25298.69
837.607	25171.46
837.932	25201.06
838.258	25239.93
838.583	25229.08
838.908	25302.3
839.233	25278.57
839.558	25168.07
839.883	25041.29
840.208	24891.92
840.533	25073.15
840.858	24993.16
841.182	24948.86
841.507	24997
841.832	24835.19
842.156	24888.75
842.481	24877.91
842.805	24813.95
843.13	24641.08
843.454	24629.32
843.778	24688.53
844.103	24531.25
844.427	24496.22
844.751	24561.53
845.075	24555.88
845.399	24329.67
845.723	24276.57
846.047	24248.77
846.371	24167.64
846.695	24111.37
847.019	23996.8
847.343	23904.15
847.666	23790.02
847.99	23746.41
848.313	23574.44
848.637	23547.09
848.96	23526.75
849.284	23515.23
849.607	23374.89
849.931	23356.14
850.254	23116.6
850.577	23003.15
850.9	22870.95
851.223	22823.27
851.546	22675.25
851.869	22654.23
852.192	22743.95
852.515	22463.28
852.838	22357.52
853.161	22411.3
853.483	22167.69
853.806	22264.41
854.129	22206.11
854.451	22087.02
854.774	21960.02
855.096	22016.51
855.419	21855.84
855.741	21855.39
856.063	21733.58
856.385	21627.37
856.708	21670.76
857.03	21586.92
857.352	21486.36
857.674	21538.56
857.996	21432.8
858.318	21307.38
858.64	21301.28
858.961	21232.58
859.283	21073.49
859.605	21080.94
859.926	21112.35
860.248	21046.14
860.57	20941.29
860.891	20942.19
861.212	20773.61
861.534	20758.01
861.855	20708.75
862.176	20798.69
862.498	20690.67
862.819	20612.93
863.14	20533.61
863.461	20511.69
863.782	20456.1
864.103	20518.47
864.424	20405.71
864.745	20526.61
865.065	20276.44
865.386	20290.91
865.707	20328.42
866.027	20261.53
866.348	20263.11
866.668	20219.72
866.989	20244.35
867.309	20101.31
867.63	20070.35
867.95	20100.86
868.27	19994.87
868.59	20065.6
868.91	19996.9
869.23	19944.93
869.55	19752.16
869.87	19854.31
870.19	19778.6
870.51	19830.81
870.83	19831.71
871.15	19662
871.469	19742.9
871.789	19780.19
872.109	19693.63
872.428	19604.82
872.748	19627.65
873.067	19511.72
873.386	19453.19
873.706	19514.66
874.025	19424.04
874.344	19479.63
874.663	19436.47
874.982	19412.51
875.301	19416.58
875.62	19201.44
875.939	19262.23
876.258	19375
876.577	19170.26
876.896	19148.11
877.214	19152.86
877.533	19146.08
877.852	19113.99
878.17	19145.17
878.489	19091.16
878.807	18975.24
879.125	18986.53
879.444	18928.91
879.762	18837.61
880.08	18891.4
880.398	18827.22
880.716	18850.49
881.034	18795.81
881.352	18806.43
881.67	18673.77
881.988	18623.83
882.306	18503.61
882.624	18550.39
882.941	18482.37
883.259	18447.79
883.577	18444.18
883.894	18362.6
884.212	18268.59
884.529	18293.9
884.846	18222.94
885.164	18215.03
885.481	18132.09
885.798	18196.5
886.115	18015.71
886.432	18060.91
886.75	18034.47
887.067	18024.53
887.383	17904.08
887.7	17946.34
888.017	17789.96
888.334	17923.96
888.651	17751.76
888.967	17775.04
889.284	17714.7
889.6	17560.58
889.917	17593.58
890.233	17544.99
890.55	17466.12
890.866	17570.98
891.182	17368.72
891.498	17333.02
891.815	17336.86
892.131	17110.2
892.447	17127.15
892.763	17137.77
893.079	17053.03
893.395	16937.55
893.71	16996.76
894.026	16916.31
894.342	16852.35
894.657	16803.09
894.973	16742.07
895.289	16676.99
895.604	16705.24
895.92	16637.22
896.235	16592.02
896.55	16539.59
896.865	16451.23
897.181	16402.87
897.496	16388.64
897.811	16275.65
898.126	16175.31
898.441	16186.83
898.756	16130.11
899.071	16134.63
899.386	16057.57
899.7	15919.72
900.015	15807.64
900.33	15752.95
900.644	15649.22
900.959	15686.51
901.273	15574.87
901.588	15564.48
901.902	15622.78
902.216	15489.23
902.531	15461.88
902.845	15323.35
903.159	15167.43
903.473	15172.17
903.787	15122.91
904.101	15046.07
904.415	15126.3
904.729	15047.88
905.042	14896.47
905.356	14937.6
905.67	14814.44
905.984	14838.4
906.297	14742.13
906.611	14673.65
906.924	14644.73
907.237	14635.91
907.551	14588.23
907.864	14528.35
908.177	14494
908.491	14350.5
908.804	14211.52
909.117	14186.89
909.43	14065.99
909.743	14073.44
910.056	14131.97
910.368	13962.94
910.681	13903.5
910.994	13830.29
911.307	13775.15
911.619	13654.7
911.932	13661.02
912.244	13595.26
912.557	13556.85
912.869	13446.12
913.181	13448.83
913.494	13475.95
913.806	13329.06
914.118	13281.83
914.43	13155.28
914.742	13222.84
915.054	13073.47
915.366	13046.8
915.678	13029.63
915.99	13010.42
916.302	12940.82
916.613	12879.35
916.925	12804.32
917.236	12838.45
917.548	12746.25
917.859	12751.9
918.171	12596.42
918.482	12527.72
918.794	12512.81
919.105	12473.26
919.416	12343.32
919.727	12384.9
920.038	12308.74
920.349	12185.81
920.66	12134.29
920.971	12157.56
921.282	12209.99
921.593	12024.01
921.903	11924.12
922.214	11813.39
922.525	11853.39
922.835	11810
923.146	11753.5
923.456	11750.79
923.767	11641.19
924.077	11753.96
924.387	11576.33
924.697	11523.68
925.008	11490.46
925.318	11471.93
925.628	11432.83
925.938	11333.63
926.248	11252.5
926.558	11227.19
926.867	11209.56
927.177	11171.37
927.487	11094.54
927.796	11068.78
928.106	11000.98
928.416	10972.28
928.725	10995.11
929.034	10858.61
929.344	10934.54
929.653	10857.71
929.962	10785.85
930.271	10683.93
930.581	10619.52
930.89	10703.36
931.199	10552.86
931.508	10492.75
931.817	10410.04
932.125	10529.81
932.434	10420.88
932.743	10267.67
933.051	10309.02
933.36	10301.57
933.669	10220.44
933.977	10166.65
934.286	10094.79
934.594	10102.02
934.902	10073.77
935.21	10039.2
935.519	9947.22
935.827	9945.87
936.135	9824.52
936.443	9741.58
936.751	9777.29
937.059	9766.21
937.367	9655.25
937.674	9662.26
937.982	9677.85
938.29	9579.55
938.597	9602.83
938.905	9510.63
939.213	9456.84
939.52	9410.74
939.827	9409.61
940.135	9376.84
940.442	9308.37
940.749	9236.28
941.056	9243.74
941.363	9163.97
941.67	9199.9
941.977	9063.18
942.284	9057.98
942.591	9046.46
942.898	8964.65
943.205	8927.59
943.511	8851.21
943.818	8871.09
944.125	8736.86
944.431	8804.88
944.738	8730.31
945.044	8742.51
945.35	8654.38
945.657	8592.23
945.963	8596.07
946.269	8526.24
946.575	8534.61
946.881	8485.12
947.187	8470.43
947.493	8330.32
947.799	8404.44
948.105	8260.71
948.41	8223.65
948.716	8232.24
949.022	8300.04
949.327	8167.16
949.633	8137.1
949.938	8175.29
950.244	8158.34
950.549	8046.71
950.854	7975.75
951.16	7929.42
951.465	7885.13
951.77	7820.95
952.075	7849.2
952.38	7785.25
952.685	7818.92
952.99	7717.9
953.294	7778.02
953.599	7691.69
953.904	7630.68
954.209	7638.13
954.513	7562.88
954.818	7465.48
955.122	7487.18
955.426	7494.86
955.731	7446.95
956.035	7443.79
956.339	7369.89
956.643	7381.87
956.948	7270.91
957.252	7258.48
957.556	7210.8
957.86	7271.81
958.163	7193.17
958.467	7168.31
958.771	7127.19
959.075	7145.49
959.378	7009.67
959.682	7047.19
959.985	7015.32
960.289	6973.97
960.592	6914.54
960.896	6886.74
961.199	6933.97
961.502	6869.57
961.805	6765.39
962.108	6733.98
962.411	6785.27
962.714	6721.55
963.017	6691.04
963.32	6707.08
963.623	6592.96
963.926	6595.22
964.228	6583.92
964.531	6595.9
964.833	6554.09
965.136	6489.24
965.438	6441.78
965.741	6386.87
966.043	6409.24
966.345	6384.38
966.648	6302.57
966.95	6338.28
967.252	6263.48
967.554	6253.99
967.856	6300.09
968.158	6168.11
968.46	6137.83
968.761	6155.46
969.063	6111.62
969.365	6086.53
969.666	6070.72
969.968	6049.02
970.269	5968.35
970.571	5921.12
970.872	5906.43
971.174	5899.65
971.475	5889.48
971.776	5854.45
972.077	5853.77
972.378	5846.54
972.679	5796.82
972.98	5788.24
973.281	5714.79
973.582	5710.95
973.883	5665.98
974.183	5630.73
974.484	5599.54
974.785	5644.96
975.085	5610.16
975.386	5575.81
975.686	5550.5
975.986	5477.51
976.287	5496.04
976.587	5410.17
976.887	5465.31
977.187	5465.99
977.487	5411.98
977.787	5350.74
978.087	5329.49
978.387	5323.62
978.687	5299.44
978.987	5270.29
979.286	5209.95
979.586	5207.01
979.885	5167.91
980.185	5135.6
980.484	5145.77
980.784	5153.68
981.083	5102.38
981.382	5078.43
981.682	5053.57
981.981	5007.02
982.28	4987.81
982.579	4931.54
982.878	4910.29
983.177	4926.57
983.475	4914.59
983.774	4882.72
984.073	4848.6
984.372	4842.05
984.67	4808.83
984.969	4795.95
985.267	4789.62
985.566	4719.34
985.864	4747.14
986.162	4690.19
986.461	4705.55
986.759	4662.17
987.057	4583.98
987.355	4591.21
987.653	4561.83
987.951	4584.2
988.249	4567.25
988.547	4501.04
988.844	4515.28
989.142	4509.18
989.44	4434.15
989.737	4458.33
990.035	4398.67
990.332	4365
990.63	4337.2
990.927	4365.68
991.224	4330.87
991.521	4324.55
991.819	4271.44
992.116	4238.9
992.413	4228.5
992.71	4201.39
993.006	4189.41
993.303	4154.38
993.6	4158.9
993.897	4111.45
994.193	4078
994.49	4101.28
994.787	4057.21
995.083	4039.81
995.379	3991.45
995.676	3983.77
995.972	3982.18
996.268	3957.78
996.565	3948.51
996.861	3936.99
997.157	3903.09
997.453	3903.54
997.749	3867.16
998.044	3856.99
998.34	3800.27
998.636	3816.54
998.932	3798.46
999.227	3753.04
999.523	3769.08
999.818	3771.57
1000.114	3704.68
1000.409	3665.13
1000.704	3676.65
1001	3670.1
1001.295	3579.03
1001.59	3627.16
1001.885	3566.38
1002.18	3549.43
1002.475	3534.51
1002.77	3501.07
1003.065	3481.41
1003.359	3499.03
1003.654	3472.37
1003.949	3394.4
1004.243	3435.08
1004.538	3346.72
1004.832	3371.35
1005.127	3346.72
1005.421	3308.98
1005.715	3324.8
1006.009	3289.32
1006.304	3264.69
1006.598	3268.53
1006.892	3237.34
1007.186	3176.78
1007.48	3222.2
1007.773	3172.94
1008.067	3183.79
1008.361	3136.78
1008.655	3149.89
1008.948	3086.39
1009.242	3062.21
1009.535	3056.33
1009.829	2999.84
1010.122	3009.78
1010.415	2975.88
1010.708	2975.43
1011.001	2977.01
1011.295	2961.19
1011.588	2947.86
1011.881	2908.54
1012.173	2910.12
1012.466	2881.65
1012.759	2850.46
1013.052	2816.79
1013.344	2838.26
1013.637	2778.37
1013.93	2768.43
1014.222	2774.31
1014.514	2740.41
1014.807	2753.29
1015.099	2713.97
1015.391	2709.22
1015.683	2676.91
1015.976	2643.01
1016.268	2622.9
1016.56	2633.07
1016.851	2593.75
1017.143	2622.22
1017.435	2566.4
1017.727	2542
1018.018	2543.13
1018.31	2523.46
1018.602	2515.1
1018.893	2515.78
1019.185	2413.19
1019.476	2453.41
1019.767	2445.05
1020.058	2422.68
1020.35	2411.15
1020.641	2392.39
1020.932	2378.16
1021.223	2382.45
1021.514	2306.07
1021.804	2293.64
1022.095	2298.16
1022.386	2297.26
1022.677	2264.71
1022.967	2240.31
1023.258	2233.98
1023.548	2206.64
1023.839	2202.12
1024.129	2181.78
1024.419	2172.97
1024.709	2124.61
1025	2128.9
1025.29	2129.35
1025.58	2088.45
1025.87	2113.98
1026.16	2082.35
1026.449	2075.79
1026.739	2051.61
1027.029	2062.46
1027.319	2015.91
1027.608	1991.5
1027.898	2028.34
1028.187	2012.07
1028.477	1943.59
1028.766	1925.97
1029.055	1921.67
1029.344	1950.15
1029.634	1914.44
1029.923	1902.01
1030.212	1867.66
1030.501	1854.1
1030.79	1885.29
1031.078	1848.68
1031.367	1805.52
1031.656	1822.92
1031.945	1822.24
1032.233	1801
1032.522	1798.29
1032.81	1727.78
1033.099	1727.33
1033.387	1743.6
1033.675	1715.8
1033.963	1731.85
1034.251	1707.21
1034.54	1688.23
1034.828	1674.45
1035.116	1656.59
1035.403	1625.18
1035.691	1620.44
1035.979	1647.1
1036.267	1633.09
1036.554	1642.58
1036.842	1615.01
1037.129	1580.89
1037.417	1578.18
1037.704	1569.82
1037.992	1549.71
1038.279	1536.82
1038.566	1511.74
1038.853	1511.74
1039.14	1511.74
