Data from 350_FLMS001491_010.txt Node
Date: Thu Apr 19 15:44:49 BST 2018
User: hsy
Spectrometer: FLMS00149
Trigger mode: 0
Integration Time (sec): 1.000000E-2
Scans to average: 10
Electric dark correction enabled: true
Nonlinearity correction enabled: false
Boxcar width: 0
XAxis mode: Wavelengths
Number of Pixels in Spectrum: 2048
>>>>>Begin Spectral Data<<<<<
341.393	-10.68
341.776	-10.68
342.16	-10.68
342.543	-64.46
342.927	-75.99
343.31	-79.6
343.693	-57.91
344.077	-69.43
344.46	-61.52
344.843	-49.32
345.226	-30.56
345.61	-25.14
345.993	-20.17
346.376	6.95
346.759	16.89
347.142	34.52
347.525	44.69
347.908	38.81
348.291	79.04
348.674	93.73
349.057	79.04
349.44	118.81
349.823	159.94
350.206	181.63
350.588	201.97
350.971	215.53
351.354	242.65
351.737	256.43
352.119	274.51
352.502	282.2
352.884	272.93
353.267	283.33
353.65	298.69
354.032	320.16
354.414	318.35
354.797	321.29
355.179	329.88
355.562	330.33
355.944	354.96
356.326	356.32
356.709	362.65
357.091	364.91
357.473	348.86
357.855	374.62
358.238	355.41
358.62	365.13
359.002	368.75
359.384	378.69
359.766	346.6
360.148	357.67
360.53	371.69
360.912	375.3
361.294	375.3
361.676	347.73
362.057	357.22
362.439	352.7
362.821	357.22
363.203	357.45
363.584	349.09
363.966	354.06
364.348	356.32
364.729	347.73
365.111	346.83
365.493	355.19
365.874	347.28
366.256	345.92
366.637	337.56
367.019	318.58
367.4	361.97
367.781	356.77
368.163	335.75
368.544	360.39
368.925	346.83
369.306	345.02
369.688	358.8
370.069	355.19
370.45	362.87
370.831	347.05
371.212	343.44
371.593	349.54
371.974	338.01
372.355	350.22
372.736	380.27
373.117	350.22
373.498	355.64
373.879	354.96
374.26	345.25
374.641	350.67
375.021	354.74
375.402	382.53
375.783	364.45
376.163	365.81
376.544	404
376.925	380.27
377.305	388.18
377.686	382.08
378.066	377.11
378.447	352.25
378.827	377.56
379.208	353.83
379.588	400.84
379.968	396.09
380.349	396.32
380.729	375.98
381.109	380.5
381.489	369.65
381.87	399.03
382.25	399.48
382.63	406.26
383.01	416.66
383.39	399.71
383.77	382.53
384.15	423.66
384.53	424.57
384.91	410.55
385.29	427.05
385.67	435.41
386.049	434.96
386.429	444.68
386.809	422.31
387.189	430.21
387.568	438.12
387.948	444.9
388.328	432.47
388.707	436.09
389.087	454.17
389.466	481.06
389.846	452.36
390.225	442.42
390.605	468.18
390.984	453.72
391.363	456.88
391.743	462.08
392.122	489.2
392.501	465.24
392.881	476.77
393.26	483.09
393.639	511.79
394.018	479.48
394.397	516.99
394.776	504.79
395.155	516.99
395.534	495.52
395.913	487.39
396.292	499.37
396.671	514.73
397.05	521.74
397.429	519.03
397.808	499.14
398.186	492.59
398.565	503.89
398.944	518.57
399.323	518.35
399.701	527.39
400.08	538.01
400.458	528.97
400.837	537.56
401.215	549.76
401.594	554.73
401.972	549.08
402.351	568.52
402.729	575.75
403.107	556.99
403.486	568.52
403.864	560.61
404.242	556.09
404.62	582.53
404.999	569.19
405.377	580.72
405.755	596.31
406.133	601.74
406.511	601.74
406.889	623.43
407.267	627.27
407.645	613.26
408.023	640.83
408.401	632.7
408.779	631.57
409.156	650.1
409.534	637.67
409.912	642.19
410.29	692.58
410.667	672.24
411.045	688.06
411.422	670.89
411.8	700.04
412.178	688.96
412.555	703.2
412.933	710.43
413.31	711.34
413.687	733.71
414.065	717.89
414.442	723.99
414.819	737.33
415.197	712.24
415.574	761.73
415.951	765.8
416.328	760.38
416.705	758.79
417.082	800.15
417.46	776.65
417.837	792.69
418.214	800.15
418.591	806.25
418.967	796.08
419.344	796.53
419.721	828.85
420.098	825.01
420.475	815.74
420.852	829.07
421.228	847.83
421.605	848.96
421.982	868.85
422.358	845.8
422.735	870.43
423.111	870.88
423.488	885.57
423.864	898.22
424.241	893.48
424.617	901.84
424.994	877.89
425.37	906.59
425.746	922.86
426.123	929.18
426.499	937.77
426.875	958.34
427.251	961.05
427.627	959.92
428.003	979.35
428.379	982.06
428.756	997.66
429.132	994.49
429.507	1018.9
429.883	1017.54
430.259	1021.39
430.635	1057.32
431.011	1029.29
431.387	1077.66
431.763	1076.53
432.138	1091.67
432.514	1130.76
432.89	1117.65
433.265	1150.65
433.641	1193.58
434.016	1144.55
434.392	1168.95
434.767	1206.24
435.143	1220.93
435.518	1223.64
435.894	1230.65
436.269	1222.74
436.644	1237.65
437.02	1248.5
437.395	1261.61
437.77	1265.22
438.145	1313.36
438.52	1307.25
438.895	1293.02
439.271	1311.1
439.646	1343.41
440.021	1356.07
440.395	1359
440.77	1343.41
441.145	1342.73
441.52	1381.83
441.895	1374.82
442.27	1394.03
442.645	1390.42
443.019	1384.77
443.394	1387.93
443.769	1390.19
444.143	1436.29
444.518	1414.6
444.892	1433.58
445.267	1413.01
445.641	1457.08
446.016	1465.22
446.39	1454.59
446.764	1500.92
447.139	1482.16
447.513	1496.85
447.887	1492.79
448.262	1514.25
448.636	1532.56
449.01	1513.58
449.384	1545.89
449.758	1576.17
450.132	1581.14
450.506	1599.22
450.88	1581.82
451.254	1590.86
451.628	1601.94
452.002	1628.15
452.376	1642.84
452.75	1672.67
453.123	1686.23
453.497	1708.6
453.871	1671.31
454.244	1733.68
454.618	1790.63
454.992	1775.72
455.365	1776.85
455.739	1802.16
456.112	1846.67
456.486	1838.54
456.859	1880.57
457.232	1922.6
457.606	1956.95
457.979	1929.61
458.352	1994.24
458.725	2000.34
459.099	2013.22
459.472	2026.78
459.845	2072.66
460.218	2109.49
460.591	2121.47
460.964	2150.62
461.337	2132.09
461.71	2207.57
462.083	2193.33
462.456	2204.18
462.829	2224.74
463.201	2262.03
463.574	2259.09
463.947	2298.87
464.32	2357.85
464.692	2383.38
465.065	2398.75
465.438	2384.06
465.81	2433.78
466.183	2444.85
466.555	2485.98
466.928	2516.49
467.3	2531.85
467.672	2552.64
468.045	2590.61
468.417	2621.8
468.789	2629.7
469.161	2649.14
469.534	2711.74
469.906	2771.17
470.278	2785.18
470.65	2820.89
471.022	2867.66
471.394	2909.7
471.766	2932.07
472.138	2985.18
472.51	3024.04
472.882	3052.52
473.253	3072.41
473.625	3137.94
473.997	3209.58
474.369	3207.54
474.74	3200.09
475.112	3303.36
475.484	3410.7
475.855	3368.22
476.227	3428.55
476.598	3532.51
476.97	3559.85
477.341	3633.07
477.713	3682.56
478.084	3656.34
478.455	3762.1
478.827	3848.2
479.198	3928.2
479.569	3922.78
479.94	4042.78
480.311	4115.54
480.682	4207.74
481.053	4292.94
481.424	4328.87
481.795	4426.04
482.166	4462.43
482.537	4518.69
482.908	4659.93
483.279	4671.23
483.65	4811.34
484.021	4837.78
484.391	4914.62
484.762	4991.22
485.133	5015.86
485.503	5099.7
485.874	5213.82
486.244	5264.66
486.615	5341.5
486.985	5449.07
487.356	5546.24
487.726	5605.45
488.097	5742.84
488.467	5828.26
488.837	5897.42
489.207	5953.01
489.578	6069.39
489.948	6119.56
490.318	6262.38
490.688	6284.07
491.058	6407.68
491.428	6548.47
491.798	6538.3
492.168	6715.02
492.538	6750.27
492.908	6863.04
493.278	6935.35
493.648	6931.96
494.017	7102.36
494.387	7174.22
494.757	7239.98
495.126	7304.38
495.496	7372.86
495.866	7487.66
496.235	7547.77
496.605	7611.49
496.974	7677.93
497.344	7846.06
497.713	7849.45
498.082	7951.6
498.452	7975.55
498.821	8120.41
499.19	8154.08
499.559	8152.5
499.928	8304.13
500.298	8396.11
500.667	8486.73
501.036	8549.1
501.405	8579.83
501.774	8610.34
502.143	8741.18
502.512	8846.04
502.88	8902.99
503.249	8959.26
503.618	9073.38
503.987	9089.87
504.356	9146.6
504.724	9188.85
505.093	9310.89
505.462	9352.01
505.83	9402.86
506.199	9511.78
506.567	9651.89
506.936	9624.78
507.304	9726.24
507.672	9859.35
508.041	9966.46
508.409	9970.98
508.777	10121.94
509.145	10148.38
509.514	10183.4
509.882	10279.67
510.25	10390.18
510.618	10393.79
510.986	10498.88
511.354	10602.38
511.722	10774.35
512.09	10757.85
512.458	10722.15
512.826	10902.48
513.193	10975.93
513.561	11075.13
513.929	11161.01
514.297	11257.73
514.664	11360.77
515.032	11452.3
515.4	11568.23
515.767	11582.01
516.135	11699.97
516.502	11629.69
516.869	11894.32
517.237	11904.04
517.604	11939.06
517.972	12104.03
518.339	12169.57
518.706	12233.52
519.073	12341.77
519.44	12417.47
519.808	12492.27
520.175	12604.36
520.542	12810.91
520.909	12883.45
521.276	12939.94
521.643	13080.28
522.009	13154.85
522.376	13254.06
522.743	13371.8
523.11	13528.85
523.477	13570.21
523.843	13660.38
524.21	13927.71
524.577	14024.43
524.943	14126.13
525.31	14126.8
525.676	14332.45
526.043	14460.13
526.409	14542.16
526.776	14589.62
527.142	14668.48
527.508	14820.12
527.874	15014.46
528.241	15155.7
528.607	15101.24
528.973	15367.9
529.339	15366.09
529.705	15529.48
530.071	15652.64
530.437	15799.75
530.803	15803.37
531.169	15917.04
531.535	15930.15
531.901	16126.75
532.267	16183.25
532.632	16290.59
532.998	16401.55
533.364	16377.59
533.73	16475.67
534.095	16629.11
534.461	16646.74
534.826	16768.32
535.192	16770.12
535.557	16954.07
535.923	16960.4
536.288	17039.04
536.653	17210.34
537.019	17130.79
537.384	17244.46
537.749	17253.95
538.114	17352.26
538.479	17299.15
538.845	17434.97
539.21	17514.96
539.575	17564.45
539.94	17546.37
540.305	17766.26
540.67	17720.38
541.034	17820.04
541.399	17777.56
541.764	18015.06
542.129	17946.82
542.494	18110.43
542.858	18050.77
543.223	18134.16
543.587	18212.8
543.952	18138.22
544.316	18285.11
544.681	18305
545.045	18378.67
545.41	18490.53
545.774	18395.17
546.138	18601.49
546.503	18677.42
546.867	18627.48
547.231	18695.95
547.595	18735.72
547.959	18800.13
548.324	18754.25
548.688	19002.83
549.052	18933.01
549.416	18964.42
549.779	19108.14
550.143	19208.25
550.507	19287.8
550.871	19281.7
551.235	19348.36
551.599	19464.97
551.962	19500.67
552.326	19524.85
552.689	19540.22
553.053	19433.56
553.417	19552.2
553.78	19861.34
554.143	19829.93
554.507	19968.46
554.87	20042.35
555.234	20211.39
555.597	20058.63
555.96	20136.82
556.323	20249.35
556.686	20299.97
557.05	20384.94
557.413	20535.45
557.776	20499.29
558.139	20715.33
558.502	20725.95
558.865	20798.04
559.228	20956.68
559.59	21014.98
559.953	21053.63
560.316	21433.28
560.679	21255.66
561.041	21377.23
561.404	21567.06
561.767	21791.69
562.129	21744
562.492	21950.55
562.854	21920.95
563.217	22043.66
563.579	22018.12
563.941	22321.16
564.304	22397.55
564.666	22545.34
565.028	22522.29
565.39	22594.15
565.753	22804.32
566.115	22986.01
566.477	23034.59
566.839	23020.36
567.201	23234.59
567.563	23403.4
567.925	23594.13
568.287	23549.83
568.648	23586.44
569.01	23780.56
569.372	23956.38
569.734	23875.93
570.095	24104.85
570.457	24299.64
570.819	24196.37
571.18	24318.4
571.542	24525.17
571.903	24559.98
572.265	24770.82
572.626	24821.66
572.987	24800.65
573.349	24975.11
573.71	25101.2
574.071	25291.03
574.432	25374.42
574.794	25479.5
575.155	25479.05
575.516	25405.38
575.877	25630.68
576.238	25632.04
576.599	25680.17
576.96	25644.69
577.32	25766.72
577.681	25890.11
578.042	26020.73
578.403	26047.85
578.763	25962.65
579.124	26042.42
579.485	26195.41
579.845	26231.8
580.206	26162.42
580.566	26394.28
580.927	26239.48
581.287	26444.45
581.648	26305.92
582.008	26461.17
582.368	26408.06
582.728	26507.27
583.089	26451.68
583.449	26416.2
583.809	26563.09
584.169	26537.78
584.529	26476.99
584.889	26629.3
585.249	26561.96
585.609	26418.01
585.969	26731.9
586.329	26491.9
586.688	26665.23
587.048	26560.6
587.408	26591.11
587.768	26516.99
588.127	26485.35
588.487	26438.57
588.846	26637.89
589.206	26440.83
589.565	26423.88
589.925	26607.38
590.284	26500.72
590.643	26535.97
591.003	26602.63
591.362	26629.75
591.721	26541.39
592.08	26500.26
592.44	26702.74
592.799	26560.83
593.158	26596.98
593.517	26463.2
593.876	26513.14
594.235	26431.34
594.593	26585.01
594.952	26574.61
595.311	26463.65
595.67	26511.34
596.029	26623.2
596.387	26662.07
596.746	26730.77
597.104	26508.85
597.463	26624.1
597.822	26723.53
598.18	26557.66
598.538	26547.49
598.897	26717.66
599.255	26655.29
599.613	26822.74
599.972	26748.39
600.33	26754.27
600.688	26629.3
601.046	26706.13
601.404	26893.25
601.762	26773.7
602.12	26797.21
602.478	26824.77
602.836	26872.46
603.194	26698.68
603.552	26970.99
603.91	26864.55
604.268	26848.05
604.625	26879.46
604.983	26910.87
605.341	26872.01
605.698	27057.76
606.056	27112.9
606.413	26924.66
606.771	27116.97
607.128	27060.02
607.485	27035.16
607.843	27031.55
608.2	27097.08
608.557	27240.81
608.914	27210.75
609.272	27196.29
609.629	27316.06
609.986	27520.35
610.343	27417.3
610.7	27512.21
611.057	27487.13
611.414	27320.13
611.771	27545.66
612.127	27526.23
612.484	27655.49
612.841	27742.72
613.198	27585.21
613.554	27571.87
613.911	27703.17
614.267	27799.21
614.624	27641.25
614.98	27787.69
615.337	27939.77
615.693	27987
616.05	28026.78
616.406	28009.15
616.762	28004.4
617.118	28055.93
617.475	28036.04
617.831	28142.03
618.187	28217.51
618.543	28069.26
618.899	28411.63
619.255	28246.43
619.611	28304.74
619.967	28281.46
620.323	28436.26
620.678	28285.75
621.034	28254.79
621.39	28259.99
621.746	28242.14
622.101	28493.43
622.457	28354.23
622.812	28454.34
623.168	28523.94
623.523	28583.15
623.879	28588.12
624.234	28356.49
624.589	28542.24
624.945	28615.01
625.3	28577.5
625.655	28571.62
626.01	28653.43
626.365	28723.93
626.72	28595.58
627.075	28621.11
627.43	28568.68
627.785	28463.83
628.14	28511.74
628.495	28565.52
628.85	28543.83
629.205	28467.44
629.559	28535.46
629.914	28446.65
630.269	28269.71
630.623	28227.22
630.978	28257.96
631.332	28245.3
631.687	28374.34
632.041	28255.7
632.396	28234.46
632.75	28213.66
633.104	28331.85
633.459	28090.96
633.813	28129.37
634.167	28130.28
634.521	28142.48
634.875	28162.14
635.229	28142.71
635.583	28022.03
635.937	27939.1
636.291	27958.98
636.645	27817.52
636.999	27878.08
637.352	27873.79
637.706	27744.3
638.06	27817.29
638.413	27720.34
638.767	27637.86
639.121	27752.89
639.474	27628.82
639.828	27678.76
640.181	27522.38
640.534	27527.13
640.888	27489.62
641.241	27353.57
641.594	27337.3
641.947	27499.79
642.301	27234.03
642.654	27236.52
643.007	27233.35
643.36	27327.81
643.713	27267.7
644.066	27406.91
644.419	27039.91
644.771	26775.28
645.124	26548.62
645.477	26597.21
645.83	26611.9
646.182	26491.68
646.535	26399.93
646.888	26456.87
647.24	26498.46
647.593	26687.83
647.945	26498.68
648.298	26335.97
648.65	26262.98
649.002	25943.44
649.355	25729.89
649.707	25608.54
650.059	25707.97
650.411	26161.97
650.763	26354.28
651.115	26790.43
651.467	26851.21
651.819	26646.93
652.171	26693.03
652.523	26563.09
652.875	26609.87
653.227	26524.22
653.578	26748.84
653.93	26590.88
654.282	26403.54
654.633	26504.11
654.985	26491.45
655.337	26475.18
655.688	26438.34
656.039	26496.2
656.391	26285.81
656.742	26292.36
657.094	26330.55
657.445	26415.52
657.796	26458
658.147	26353.6
658.498	26365.8
658.849	26374.39
659.2	26211.23
659.551	26300.49
659.902	26458.23
660.253	26258.46
660.604	26372.13
660.955	26283.32
661.306	26442.64
661.656	26289.87
662.007	26370.32
662.358	26410.77
662.708	26385.69
663.059	26427.95
663.409	26142.31
663.76	26300.95
664.11	26401.96
664.461	26470.66
664.811	26280.16
665.161	26288.97
665.511	26316.77
665.862	26346.37
666.212	26392.47
666.562	26349.99
666.912	26287.16
667.262	26177.11
667.612	26267.05
667.962	26229.99
668.312	26313.15
668.662	26316.09
669.011	26380.94
669.361	26205.81
669.711	26284.22
670.06	26142.31
670.41	26186.83
670.76	26039.26
671.109	26146.6
671.459	26348.4
671.808	26263.89
672.157	26188.41
672.507	26075.64
672.856	26091.46
673.205	26183.89
673.554	25969.2
673.904	25972.59
674.253	26308.63
674.602	26040.39
674.951	25761.75
675.3	25572.38
675.649	26056.89
675.998	26100.95
676.346	26187.05
676.695	26135.75
677.044	25909.09
677.393	25867.96
677.741	26088.75
678.09	25992.03
678.438	25943.22
678.787	26024.34
679.135	25975.53
679.484	25797.68
679.832	25877
680.181	25675.43
680.529	25825.03
680.877	25686.5
681.225	25577.8
681.573	25765.14
681.922	25628.2
682.27	25597.24
682.618	25577.35
682.966	25451.48
683.314	25600.85
683.661	25599.5
684.009	25475.88
684.357	25376.23
684.705	25337.81
685.053	25329
685.4	25236.79
685.748	25109.57
686.095	25062.11
686.443	24984.37
686.79	24950.02
687.138	24912.28
687.485	25004.48
687.832	24746.86
688.18	24856.47
688.527	24618.73
688.874	24716.58
689.221	24692.85
689.568	24445.85
689.915	24358.17
690.262	24407.21
690.609	24436.36
690.956	24379.42
691.303	24332.41
691.65	24196.37
691.997	24201.34
692.344	24054.9
692.69	23977.62
693.037	23888.35
693.383	23729.94
693.73	23937.17
694.077	23736.04
694.423	23649.49
694.769	23607.68
695.116	23580.57
695.462	23467.12
695.808	23480.68
696.155	23528.59
696.501	23144.65
696.847	23215.6
697.193	23144.42
697.539	23018.1
697.885	22889.29
698.231	22849.51
698.577	22859.46
698.923	22816.74
699.269	22584.66
699.614	22620.37
699.96	22519.13
700.306	22605
700.651	22467.83
700.997	22277.32
701.342	22248.62
701.688	22170.66
702.033	22118.68
702.379	22192.35
702.724	22017.9
703.069	22030.78
703.415	21852.93
703.76	21727.28
704.105	21804.34
704.45	21709.43
704.795	21631.92
705.14	21483.67
705.485	21574.52
705.83	21355.09
706.175	21417.69
706.52	21479.83
706.865	21310.57
707.209	21174.08
707.554	21215.43
707.899	21227.86
708.243	21148.99
708.588	21088.2
708.932	20919.85
709.277	20925.72
709.621	20835.55
709.966	20692.96
710.31	20745.16
710.654	20549.23
710.998	20657.93
711.342	20641.66
711.687	20507.88
712.031	20489.12
712.375	20421.1
712.719	20307.88
713.063	20391.05
713.407	20497.26
713.75	20257.94
714.094	20283.93
714.438	20151.05
714.782	20114.22
715.125	20167.55
715.469	20242.12
715.812	20033.99
716.156	20075.12
716.499	20093.2
716.843	20104.27
717.186	20010.72
717.53	20028.34
717.873	19945.86
718.216	19947.22
718.559	19978.4
718.902	19683.04
719.246	19769.59
719.589	19697.28
719.932	19598.07
720.275	19692.76
720.617	19620.22
720.96	19576.6
721.303	19749.25
721.646	19621.57
721.989	19562.37
722.331	19627
722.674	19458.64
723.016	19619.54
723.359	19499.32
723.701	19552.2
724.044	19512.42
724.386	19421.58
724.729	19531.41
725.071	19429.26
725.413	19445.08
725.755	19392.2
726.097	19293.22
726.439	19245.77
726.782	19243.73
727.124	19440.79
727.465	19260.91
727.807	19191.76
728.149	19180.68
728.491	19135.49
728.833	19128.03
729.175	19195.82
729.516	19061.82
729.858	19126.45
730.199	19162.6
730.541	19157.63
730.882	19064.08
731.224	19171.87
731.565	18983.4
731.906	19070.63
732.248	19011.42
732.589	18992.89
732.93	18903.85
733.271	18890.29
733.612	18870.41
733.953	19034.47
734.294	18955.6
734.635	18950.63
734.976	18991.31
735.317	18996.96
735.658	18918.54
735.999	18920.35
736.339	18950.41
736.68	18928.49
737.021	18900.24
737.361	18816.85
737.702	19052.78
738.042	18872.67
738.383	18900.24
738.723	18964.19
739.063	18964.19
739.404	18974.13
739.744	19002.38
740.084	18927.36
740.424	18876.74
740.764	18963.96
741.104	19026.79
741.444	18979.78
741.784	18844.42
742.124	18994.92
742.464	18934.36
742.804	18916.28
743.143	18965.32
743.483	19024.08
743.823	18968.48
744.162	18965.77
744.502	19034.7
744.841	19014.36
745.181	19058.43
745.52	18979.33
745.86	19047.8
746.199	19002.38
746.538	19017.52
746.877	19181.59
747.216	19164.41
747.556	19205.99
747.895	19207.35
748.234	19239.21
748.573	19105.88
748.911	19171.42
749.25	19244.41
749.589	19171.64
749.928	19177.52
750.267	19299.78
750.605	19281.92
750.944	19182.49
751.283	19213.68
751.621	19372.99
751.96	19335.71
752.298	19314.46
752.636	19476.95
752.975	19443.73
753.313	19382.03
753.651	19587.23
753.989	19477.17
754.327	19537.51
754.666	19463.61
755.004	19549.26
755.342	19497.28
755.679	19525.08
756.017	19528.7
756.355	19608.69
756.693	19652.99
757.031	19738.86
757.368	19619.09
757.706	19697.73
758.044	19618.86
758.381	19646.88
758.719	19693.66
759.056	19737.05
759.394	19751.29
759.731	19515.36
760.068	19634.68
760.405	19547
760.743	19548.58
761.08	19652.76
761.417	19486.44
761.754	19516.72
762.091	19613.67
762.428	19472.65
762.765	19383.39
763.102	19558.75
763.438	19477.17
763.775	19527.79
764.112	19359.89
764.449	19414.57
764.785	19434.91
765.122	19334.58
765.458	19386.78
765.795	19274.69
766.131	19401.47
766.467	19246.22
766.804	19258.65
767.14	19142.27
767.476	19096.16
767.812	19218.42
768.148	19221.81
768.485	19100.91
768.821	18994.25
769.157	18999.9
769.492	18991.31
769.828	18914.47
770.164	18871.31
770.5	18740.02
770.836	18839.22
771.171	18678.55
771.507	18667.93
771.842	18484.2
772.178	18537.54
772.513	18465.9
772.849	18345.45
773.184	18338.22
773.519	18340.25
773.855	18256.64
774.19	18252.34
774.525	18239.69
774.86	18156.75
775.195	18101.16
775.53	18041.5
775.865	17956.31
776.2	17797.89
776.535	17777.1
776.87	17809.42
777.205	17695.52
777.539	17708.18
777.874	17663.66
778.209	17487.62
778.543	17475.42
778.878	17420.28
779.212	17421.18
779.547	17255.99
779.881	17273.61
780.215	17072.04
780.55	17218.47
780.884	16997.01
781.218	17074.07
781.552	16959.95
781.886	16858.94
782.22	16846.05
782.554	16747.3
782.888	16603.12
783.222	16549.79
783.556	16448.32
783.889	16503.01
784.223	16416.69
784.557	16391.6
784.89	16505.5
785.224	16290.81
785.557	16235.45
785.891	16210.59
786.224	16171.04
786.558	16138.28
786.891	16022.35
787.224	16027.32
787.557	15936.93
787.891	15912.75
788.224	15783.03
788.557	15738.96
788.89	15772.18
789.223	15651.28
789.556	15573.09
789.888	15628.23
790.221	15515.47
790.554	15463.27
790.887	15451.06
791.219	15318.64
791.552	15249.94
791.884	15255.81
792.217	15142.82
792.549	15089.04
792.882	14940.79
793.214	14959.78
793.546	15058.53
793.879	14927.01
794.211	14760.01
794.543	14853.34
794.875	14756.84
795.207	14775.83
795.539	14813.79
795.871	14736.28
796.203	14573.57
796.535	14558.43
796.867	14546.45
797.198	14423.75
797.53	14377.19
797.862	14234.15
798.193	14413.58
798.525	14259.68
798.856	14242.73
799.188	14107.14
799.519	14116.18
799.85	14089.52
800.182	14007.26
800.513	14042.96
800.844	13856.98
801.175	13988.95
801.506	13970.2
801.837	13953.93
802.168	13868.73
802.499	13870.31
802.83	13832.57
803.161	13681.17
803.491	13659.92
803.822	13765.91
804.153	13525.01
804.483	13521.62
804.814	13472.58
805.145	13430.55
805.475	13425.81
805.805	13512.36
806.136	13481.62
806.466	13374.96
806.796	13346.26
807.126	13301.74
807.457	13191.91
807.787	13283.66
808.117	13190.78
808.447	13086.38
808.777	13224.91
809.107	13038.92
809.436	13072.14
809.766	13002.99
810.096	13087.73
810.426	12869.66
810.755	12977.91
811.085	12958.02
811.414	12972.94
811.744	12867.4
812.073	12818.59
812.403	12761.64
812.732	12739.95
813.061	12782.43
813.39	12669.44
813.719	12618.14
814.049	12737.46
814.378	12695.65
814.707	12606.17
815.036	12609.56
815.365	12571.14
815.693	12474.42
816.022	12440.75
816.351	12439.84
816.68	12412.95
817.008	12499.05
817.337	12262.67
817.665	12328.21
817.994	12210.92
818.322	12371.14
818.651	12319.39
818.979	12209.11
819.307	12228.55
819.636	12204.14
819.964	12094.54
820.292	12138.83
820.62	12165.5
820.948	12170.7
821.276	12306.29
821.604	12198.04
821.932	12307.19
822.259	12220.64
822.587	12084.82
822.915	12075.33
823.243	12138.61
823.57	12101.09
823.898	12187.65
824.225	12116.69
824.553	12108.1
824.88	12120.53
825.207	12142.68
825.535	12104.03
825.862	12171.15
826.189	12049.8
826.516	12177.93
826.843	12133.86
827.17	12125.05
827.497	12170.24
827.824	12087.99
828.151	12163.47
828.478	12046.41
828.805	12121.66
829.131	12116.24
829.458	12087.99
829.785	12012.51
830.111	12118.49
830.438	12134.99
830.764	12127.53
831.09	12188.78
831.417	12027.42
831.743	12168.89
832.069	12076.24
832.395	12140.87
832.722	12101.77
833.048	11990.59
833.374	12085.73
833.7	12085.28
834.026	12122.79
834.351	11994.88
834.677	12059.74
835.003	12070.81
835.329	12020.42
835.654	12062.45
835.98	11984.94
836.306	12092.51
836.631	11933.64
836.956	12036.01
837.282	12027.2
837.607	12011.83
837.932	11924.38
838.258	11971.83
838.583	11901.55
838.908	11846.64
839.233	11893.42
839.558	11838.28
839.883	11843.47
840.208	11753.08
840.533	11782.68
840.858	11769.35
841.182	11786.98
841.507	11817.03
841.832	11725.51
842.156	11675.12
842.481	11673.53
842.805	11677.83
843.13	11591.5
843.454	11595.34
843.778	11573.88
844.103	11567.55
844.427	11587.66
844.751	11534.1
845.075	11515.57
845.399	11414.56
845.723	11389.02
846.047	11479.87
846.371	11270.83
846.695	11307.67
847.019	11282.81
847.343	11158.75
847.666	11135.92
847.99	11136.83
848.313	11046.43
848.637	11098.86
848.96	11043.27
849.284	11061.57
849.607	10973.89
849.931	10895.25
850.254	10832.2
850.577	10767.12
850.9	10740.9
851.223	10744.97
851.546	10689.38
851.869	10564.19
852.192	10639.66
852.515	10515.37
852.838	10457.07
853.161	10453.45
853.483	10407.81
853.806	10498.2
854.129	10355.83
854.451	10353.57
854.774	10326
855.096	10273.12
855.419	10275.61
855.741	10246.91
856.063	10189.05
856.385	10154.48
856.708	10166.68
857.03	10205.1
857.352	10158.09
857.674	10096.63
857.996	10079
858.318	9966.69
858.64	9929.17
858.961	9948.16
859.283	9911.55
859.605	9831.1
859.926	9858.22
860.248	9839.23
860.57	9736.18
860.891	9803.53
861.212	9744.32
861.534	9687.82
861.855	9720.37
862.176	9779.57
862.498	9713.36
862.819	9697.32
863.14	9654.83
863.461	9640.37
863.782	9630.65
864.103	9547.49
864.424	9598.79
864.745	9549.97
865.065	9538.22
865.386	9408.74
865.707	9459.36
866.027	9463.42
866.348	9402.63
866.668	9428.4
866.989	9402.63
867.309	9348.85
867.63	9415.74
867.95	9363.31
868.27	9347.04
868.59	9366.02
868.91	9273.37
869.23	9323.99
869.55	9175.97
869.87	9312.24
870.19	9267.04
870.51	9290.32
870.83	9249.64
871.15	9181.4
871.469	9135.07
871.789	9262.75
872.109	9255.52
872.428	9129.87
872.748	9175.52
873.067	9162.41
873.386	9120.83
873.706	9110.44
874.025	9076.09
874.344	9052.36
874.663	9082.19
874.982	9050.1
875.301	9058.69
875.62	9012.14
875.939	8982.76
876.258	9035.64
876.577	8962.19
876.896	8981.85
877.214	8987.28
877.533	8958.8
877.852	8914.74
878.17	8876.32
878.489	8880.39
878.807	8873.38
879.125	8879.71
879.444	8897.56
879.762	8844.46
880.08	8798.36
880.398	8776.66
880.716	8778.47
881.034	8825.47
881.352	8794.97
881.67	8756.1
881.988	8716.32
882.306	8697.57
882.624	8705.25
882.941	8630.23
883.259	8624.8
883.577	8637.23
883.894	8653.73
884.212	8556.55
884.529	8617.34
884.846	8559.04
885.164	8513.39
885.481	8503.9
885.798	8524.69
886.115	8455.54
886.432	8473.39
886.75	8415.99
887.067	8417.35
887.383	8385.49
887.7	8384.81
888.017	8408.31
888.334	8399.5
888.651	8339.39
888.967	8366.96
889.284	8287.86
889.6	8271.14
889.917	8225.94
890.233	8240.63
890.55	8206.96
890.866	8208.09
891.182	8182.78
891.498	8148.43
891.815	8137.36
892.131	8143.23
892.447	8076.57
892.763	8049.9
893.079	8004.25
893.395	8017.59
893.71	7995.44
894.026	7957.47
894.342	7990.02
894.657	7826.18
894.973	7870.02
895.289	7879.96
895.604	7878.83
895.92	7802.9
896.235	7799.06
896.55	7750.7
896.865	7733.98
897.181	7744.15
897.496	7688.78
897.811	7649.23
898.126	7672.51
898.441	7638.39
898.756	7578.28
899.071	7562
899.386	7631.83
899.7	7515
900.015	7473.87
900.33	7388
900.644	7431.84
900.959	7435
901.273	7404.04
901.588	7388
901.902	7334.21
902.216	7279.53
902.531	7293.54
902.845	7234.78
903.159	7210.15
903.473	7171.05
903.787	7136.25
904.101	7155.69
904.415	7115.69
904.729	7083.37
905.042	7046.76
905.356	7044.96
905.67	7077.72
905.984	7043.15
906.297	7046.31
906.611	6971.96
906.924	6974.22
907.237	6936.94
907.551	6854
907.864	6895.58
908.177	6870.05
908.491	6763.16
908.804	6777.62
909.117	6734.46
909.43	6694
909.743	6706.66
910.056	6697.39
910.368	6677.28
910.681	6653.78
910.994	6573.56
911.307	6520.68
911.619	6537.17
911.932	6518.64
912.244	6457.85
912.557	6443.84
912.869	6371.3
913.181	6380.34
913.494	6431.41
913.806	6311.42
914.118	6322.94
914.43	6315.71
914.742	6282.26
915.054	6277.29
915.366	6225.32
915.678	6204.53
915.99	6189.61
916.302	6173.34
916.613	6151.19
916.925	6100.57
917.236	6103.74
917.548	6046.34
917.859	6130.86
918.171	6030.75
918.482	6005.66
918.794	6016.28
919.105	5971.31
919.416	5913.69
919.727	5945.55
920.038	5887.47
920.349	5801.15
920.66	5874.37
920.971	5864.65
921.282	5780.58
921.593	5764.99
921.903	5718.21
922.214	5710.08
922.525	5717.31
922.835	5653.58
923.146	5595.28
923.456	5645.9
923.767	5579.01
924.077	5561.83
924.387	5560.93
924.697	5506.69
925.008	5461.27
925.318	5503.53
925.628	5477.99
925.938	5485.67
926.248	5386.69
926.558	5420.14
926.867	5405.68
927.177	5346.7
927.487	5313.48
927.796	5304.89
928.106	5305.34
928.416	5283.42
928.725	5264.89
929.034	5203.87
929.344	5198.68
929.653	5182.63
929.962	5096.31
930.271	5174.04
930.581	5188.96
930.89	5090.43
931.199	5090.43
931.508	5066.02
931.817	5024.67
932.125	5047.04
932.434	5045.91
932.743	5009.08
933.051	4984.9
933.36	4917.78
933.669	4938.12
933.977	4960.94
934.286	4925.92
934.594	4897.89
934.902	4876.88
935.21	4816.31
935.519	4796.43
935.827	4820.83
936.135	4735.86
936.443	4740.61
936.751	4713.04
937.059	4726.37
937.367	4664.68
937.674	4669.65
937.982	4649.31
938.29	4622.19
938.597	4623.78
938.905	4600.5
939.213	4632.36
939.52	4564.12
939.827	4606.15
940.135	4532.48
940.442	4537.23
940.749	4489.32
941.056	4507.4
941.363	4445.93
941.67	4416.1
941.977	4404.12
942.284	4385.59
942.591	4354.63
942.898	4360.96
943.205	4376.55
943.511	4318.7
943.818	4313.95
944.125	4277.35
944.431	4239.38
944.738	4225.6
945.044	4235.76
945.35	4191.25
945.657	4186.5
945.963	4190.34
946.269	4189.21
946.575	4178.59
946.881	4139.95
947.187	4132.94
947.493	4111.25
947.799	4061.53
948.105	4083.45
948.41	4045.03
948.716	4065.15
949.022	4005.94
949.327	3993.06
949.633	3972.04
949.938	3985.38
950.244	3982.89
950.549	3918.03
950.854	3892.04
951.16	3926.39
951.465	3904.7
951.77	3888.65
952.075	3840.97
952.38	3868.99
952.685	3818.37
952.99	3778.6
953.294	3812.5
953.599	3787.64
953.904	3745.61
954.209	3735.44
954.513	3724.37
954.818	3718.94
955.122	3701.77
955.426	3690.24
955.731	3683.69
956.035	3660.86
956.339	3626.97
956.643	3617.25
956.948	3587.42
957.252	3598.72
957.556	3570.7
957.86	3526.63
958.163	3555.78
958.467	3550.81
958.771	3513.98
959.075	3562.34
959.378	3444.6
959.682	3491.83
959.985	3471.49
960.289	3466.07
960.592	3399.63
960.896	3456.35
961.199	3418.61
961.502	3367.54
961.805	3364.15
962.108	3386.3
962.411	3345.39
962.714	3364.6
963.017	3314.21
963.32	3313.3
963.623	3276.47
963.926	3263.81
964.228	3294.32
964.531	3240.76
964.833	3219.29
965.136	3252.29
965.438	3210.25
965.741	3227.2
966.043	3183.14
966.345	3220.2
966.648	3161.89
966.95	3168.45
967.252	3143.36
967.554	3139.97
967.856	3094.55
968.158	3062.01
968.46	3067.43
968.761	3079.41
969.063	3080.54
969.365	3059.3
969.666	3041.9
969.968	3027.21
970.269	3031.73
970.571	2965.97
970.872	2980.2
971.174	2985.63
971.475	2951.05
971.776	2935.01
972.077	2934.78
972.378	2913.54
972.679	2910.15
972.98	2883.94
973.281	2888.68
973.582	2904.05
973.883	2880.77
974.183	2871.96
974.484	2853.43
974.785	2819.3
975.085	2812.3
975.386	2818.17
975.686	2782.7
975.986	2764.62
976.287	2700.89
976.587	2754.22
976.887	2741.57
977.187	2738.85
977.487	2701.79
977.787	2726.2
978.087	2669.7
978.387	2682.36
978.687	2678.97
978.987	2663.38
979.286	2677.39
979.586	2687.1
979.885	2664.28
980.185	2626.54
980.484	2617.73
980.784	2629.93
981.083	2544.96
981.382	2552.19
981.682	2552.64
981.981	2592.42
982.28	2569.37
982.579	2527.11
982.878	2545.19
983.177	2499.76
983.475	2514.23
983.774	2469.48
984.073	2478.97
984.372	2474.91
984.67	2464.51
984.969	2495.25
985.267	2434.46
985.566	2403.95
985.864	2413.44
986.162	2411.63
986.461	2382.25
986.759	2408.24
987.057	2365.31
987.355	2365.08
987.653	2348.58
987.951	2337.51
988.249	2344.29
988.547	2299.54
988.844	2314.01
989.142	2292.99
989.44	2299.32
989.737	2285.99
990.035	2292.54
990.332	2253.67
990.63	2272.88
990.927	2263.39
991.224	2240.34
991.521	2241.69
991.819	2223.84
992.116	2203.73
992.413	2215.93
992.71	2170.51
993.006	2184.74
993.303	2209.38
993.6	2154.69
993.897	2137.29
994.193	2106.55
994.49	2127.12
994.787	2103.84
995.083	2114.92
995.379	2113.79
995.676	2096.39
995.972	2112.66
996.268	2079.44
996.565	2071.3
996.861	2041.92
997.157	2064.52
997.453	2029.95
997.749	2026.33
998.044	2004.86
998.34	1996.5
998.636	2009.38
998.932	1978.65
999.227	1982.26
999.523	1948.82
999.818	1988.82
1000.114	1943.4
1000.409	1920.8
1000.704	1910.18
1001	1920.34
1001.295	1895.94
1001.59	1880.35
1001.885	1917.86
1002.18	1883.06
1002.475	1876.05
1002.77	1884.64
1003.065	1847.8
1003.359	1848.26
1003.654	1862.95
1003.949	1842.83
1004.243	1856.84
1004.538	1806.45
1004.832	1848.93
1005.127	1794.47
1005.421	1775.72
1005.715	1757.41
1006.009	1773
1006.304	1758.32
1006.598	1773
1006.892	1744.98
1007.186	1720.12
1007.48	1744.98
1007.773	1719.22
1008.067	1703.4
1008.361	1690.07
1008.655	1692.78
1008.948	1684.19
1009.242	1627.7
1009.535	1664.08
1009.829	1659.79
1010.122	1638.32
1010.415	1631.99
1010.708	1608.04
1011.001	1593.57
1011.295	1629.96
1011.588	1589.05
1011.881	1599.45
1012.173	1605.1
1012.466	1563.52
1012.759	1557.64
1013.052	1549.51
1013.344	1530.75
1013.637	1551.77
1013.93	1545.21
1014.222	1512.22
1014.514	1494.14
1014.807	1479.9
1015.099	1421.15
1015.391	1482.16
1015.683	1486.91
1015.976	1474.93
1016.268	1461.6
1016.56	1470.41
1016.851	1409.17
1017.143	1430.64
1017.435	1418.66
1017.727	1402.62
1018.018	1406.91
1018.31	1390.64
1018.602	1379.79
1018.893	1394.03
1019.185	1356.97
1019.476	1373.01
1019.767	1356.07
1020.058	1336.86
1020.35	1333.92
1020.641	1326.91
1020.932	1335.28
1021.223	1306.8
1021.514	1309.97
1021.804	1287.82
1022.095	1277.42
1022.386	1286.69
1022.677	1275.16
1022.967	1300.02
1023.258	1254.83
1023.548	1272.45
1023.839	1258.89
1024.129	1235.39
1024.419	1218.22
1024.709	1221.15
1025	1211.44
1025.29	1208.73
1025.58	1170.76
1025.87	1187.26
1026.16	1187.71
1026.449	1193.36
1026.739	1174.38
1027.029	1177.54
1027.319	1173.47
1027.608	1142.06
1027.898	1149.97
1028.187	1116.3
1028.477	1141.16
1028.766	1112.46
1029.055	1102.74
1029.344	1113.59
1029.634	1113.81
1029.923	1111.78
1030.212	1078.79
1030.501	1094.15
1030.79	1056.19
1031.078	1076.75
1031.367	1041.27
1031.656	1025.91
1031.945	1055.06
1032.233	1060.48
1032.522	1029.29
1032.81	1036.3
1033.099	1040.14
1033.387	1026.58
1033.675	1042.18
1033.963	999.92
1034.251	1012.35
1034.54	1005.79
1034.828	991.56
1035.116	980.71
1035.403	980.26
1035.691	966.25
1035.979	962.63
1036.267	965.34
1036.554	930.09
1036.842	956.08
1037.129	955.85
1037.417	968.28
1037.704	928.73
1037.992	943.2
1038.279	924.66
1038.566	915.85
1038.853	915.85
1039.14	915.85
