Data from 350_FLMS001491_009.txt Node
Date: Thu Apr 19 15:44:45 BST 2018
User: hsy
Spectrometer: FLMS00149
Trigger mode: 0
Integration Time (sec): 1.000000E-2
Scans to average: 10
Electric dark correction enabled: true
Nonlinearity correction enabled: false
Boxcar width: 0
XAxis mode: Wavelengths
Number of Pixels in Spectrum: 2048
>>>>>Begin Spectral Data<<<<<
341.393	-18.04
341.776	-18.04
342.16	-18.04
342.543	-55.78
342.927	-64.59
343.31	-80.18
343.693	-74.31
344.077	-75.44
344.46	-60.07
344.843	-52.61
345.226	-37.92
345.61	-34.31
345.993	-27.53
346.376	19.02
346.759	26.93
347.142	27.84
347.525	54.5
347.908	46.59
348.291	76.88
348.674	86.82
349.057	103.77
349.44	120.04
349.823	146.71
350.206	165.46
350.588	208.17
350.971	234.16
351.354	246.36
351.737	245.46
352.119	258.34
352.502	280.04
352.884	304.67
353.267	291.79
353.65	326.59
354.032	320.26
354.414	310.54
354.797	337.89
355.179	336.3
355.562	339.02
355.944	360.26
356.326	346.25
356.709	363.87
357.091	358.45
357.473	363.87
357.855	371.11
358.238	370.2
358.62	337.21
359.002	355.97
359.384	367.04
359.766	391.67
360.148	377.43
360.53	361.16
360.912	380.15
361.294	337.43
361.676	367.26
362.057	354.61
362.439	363.42
362.821	362.97
363.203	359.13
363.584	356.64
363.966	366.36
364.348	355.74
364.729	360.94
365.111	359.13
365.493	357.77
365.874	354.61
366.256	350.09
366.637	379.02
367.019	362.29
367.4	343.99
367.781	375.4
368.163	353.03
368.544	376.53
368.925	350.99
369.306	347.15
369.688	340.37
370.069	370.65
370.45	354.38
370.831	365.68
371.212	353.48
371.593	351.45
371.974	358.68
372.355	365.68
372.736	357.1
373.117	368.39
373.498	382.63
373.879	372.91
374.26	359.58
374.641	382.18
375.021	380.82
375.402	369.07
375.783	392.8
376.163	400.26
376.544	390.99
376.925	396.64
377.305	392.12
377.686	389.41
378.066	407.94
378.447	394.61
378.827	385.34
379.208	405.68
379.588	414.27
379.968	417.21
380.349	396.87
380.729	409.75
381.109	406.36
381.489	414.49
381.87	398.22
382.25	408.85
382.63	402.29
383.01	410.2
383.39	421.73
383.77	421.5
384.15	414.49
384.53	428.73
384.91	450.2
385.29	429.86
385.67	441.84
386.049	440.71
386.429	455.85
386.809	450.65
387.189	435.96
387.568	451.33
387.948	455.62
388.328	451.56
388.707	443.42
389.087	460.37
389.466	455.85
389.846	464.89
390.225	441.16
390.605	461.05
390.984	471.22
391.363	482.74
391.743	495.4
392.122	512.12
392.501	503.53
392.881	519.8
393.26	509.86
393.639	492.91
394.018	523.19
394.397	512.8
394.776	510.76
395.155	508.96
395.534	535.17
395.913	505.11
396.292	522.74
396.671	536.07
397.05	562.29
397.429	535.17
397.808	555.06
398.186	537.88
398.565	562.74
398.944	549.63
399.323	558.45
399.701	555.73
400.08	568.84
400.458	559.12
400.837	594.15
401.215	574.26
401.594	572.46
401.972	590.76
402.351	576.3
402.729	603.87
403.107	593.02
403.486	599.35
403.864	593.02
404.242	609.74
404.62	616.98
404.999	623.08
405.377	610.2
405.755	624.21
406.133	644.32
406.511	656.52
406.889	667.37
407.267	647.48
407.645	673.02
408.023	680.7
408.401	677.09
408.779	660.36
409.156	695.84
409.534	708.5
409.912	687.93
410.29	704.66
410.667	688.84
411.045	715.5
411.422	733.81
411.8	744.66
412.178	757.31
412.555	755.95
412.933	752.79
413.31	769.74
413.687	797.08
414.065	775.84
414.442	796.18
414.819	799.12
415.197	784.2
415.574	805.22
415.951	808.16
416.328	809.06
416.705	833.47
417.082	841.83
417.46	823.98
417.837	858.32
418.214	866.69
418.591	865.56
418.967	875.5
419.344	887.02
419.721	862.39
420.098	882.28
420.475	903.52
420.852	907.36
421.228	885.22
421.605	918.89
421.982	916.85
422.358	917.31
422.735	946.46
423.111	964.54
423.488	958.66
423.864	944.42
424.241	972.45
424.617	982.39
424.994	978.1
425.37	983.97
425.746	990.98
426.123	999.56
426.499	1019
426.875	1016.29
427.251	1038.43
427.627	1066.46
428.003	1068.71
428.379	1071.43
428.756	1081.14
429.132	1091.09
429.507	1125.44
429.883	1105.78
430.259	1122.95
430.635	1108.49
431.011	1161.82
431.387	1163.85
431.763	1165.66
432.138	1210.41
432.514	1220.8
432.89	1221.25
433.265	1265.09
433.641	1243.4
434.016	1244.53
434.392	1299.9
434.767	1281.82
435.143	1295.15
435.518	1306
435.894	1330.4
436.269	1350.29
436.644	1337.18
437.02	1389.38
437.395	1379.44
437.77	1376.28
438.145	1440
438.52	1426.9
438.895	1453.11
439.271	1414.02
439.646	1485.65
440.021	1459.89
440.395	1477.07
440.77	1490.4
441.145	1461.92
441.52	1488.14
441.895	1513
442.27	1533.11
442.645	1507.57
443.019	1516.61
443.394	1540.11
443.769	1570.17
444.143	1544.41
444.518	1565.88
444.892	1578.08
445.267	1565.2
445.641	1589.61
446.016	1587.8
446.39	1620.11
446.764	1618.3
447.139	1639.55
447.513	1628.02
447.887	1625.08
448.262	1661.69
448.636	1670.51
449.01	1695.82
449.384	1701.69
449.758	1712.99
450.132	1735.82
450.506	1738.75
450.88	1748.02
451.254	1757.06
451.628	1760
452.002	1800.22
452.376	1810.62
452.75	1841.58
453.123	1841.35
453.497	1907.11
453.871	1918.64
454.244	1968.35
454.618	1944.4
454.992	1973.78
455.365	2007.67
455.739	2037.95
456.112	2046.77
456.486	2053.55
456.859	2057.62
457.232	2112.08
457.606	2107.56
457.979	2177.39
458.352	2180.32
458.725	2204.96
459.099	2202.02
459.472	2270.49
459.845	2267.33
460.218	2304.16
460.591	2326.31
460.964	2343.48
461.337	2366.31
461.71	2441.11
462.083	2425.74
462.456	2460.77
462.829	2457.38
463.201	2487.89
463.574	2525.85
463.947	2534.44
464.32	2566.75
464.692	2622.35
465.065	2608.34
465.438	2681.1
465.81	2684.72
466.183	2722
466.555	2762.68
466.928	2781.89
467.3	2793.19
467.672	2860.08
468.045	2918.16
468.417	2872.06
468.789	2917.93
469.161	2963.58
469.534	3033.63
469.906	3046.06
470.278	3116.57
470.65	3158.6
471.022	3175.78
471.394	3237.92
471.766	3296.45
472.138	3286.28
472.51	3383.91
472.882	3432.27
473.253	3434.53
473.625	3477.69
473.997	3530.57
474.369	3543
474.74	3571.02
475.112	3676.1
475.484	3726.05
475.855	3800.62
476.227	3870.68
476.598	3943.44
476.97	3956.77
477.341	4039.26
477.713	4108.86
478.084	4147.28
478.455	4257.11
478.827	4254.85
479.198	4383.88
479.569	4443.32
479.94	4552.92
480.311	4589.75
480.682	4706.59
481.053	4792.68
481.424	4853.02
481.795	4897.99
482.166	4941.38
482.537	5045.56
482.908	5169.17
483.279	5264.31
483.65	5345.66
484.021	5431.54
484.391	5527.58
484.762	5569.84
485.133	5571.87
485.503	5751.98
485.874	5864.52
486.244	5880.57
486.615	5998.75
486.985	6025.42
487.356	6164.85
487.726	6255.47
488.097	6463.15
488.467	6460.44
488.837	6587.44
489.207	6679.19
489.578	6733.42
489.948	6879.86
490.318	6966.41
490.688	7024.26
491.058	7131.38
491.428	7237.82
491.798	7269.23
492.168	7452.95
492.538	7526.17
492.908	7620.86
493.278	7783.34
493.648	7737.69
494.017	7883.9
494.387	7904.24
494.757	7978.36
495.126	8120.28
495.496	8250.9
495.866	8315.98
496.235	8379.03
496.605	8431.23
496.974	8544.9
497.344	8654.5
497.713	8682.53
498.082	8814.05
498.452	8885.68
498.821	9001.39
499.19	8992.8
499.559	9126.58
499.928	9190.99
500.298	9225.56
500.667	9331.55
501.036	9391.66
501.405	9487.93
501.774	9493.35
502.143	9578.32
502.512	9674.82
502.88	9743.06
503.249	9803.85
503.618	9967.01
503.987	9987.35
504.356	10096.5
504.724	10139.66
505.093	10179.66
505.462	10351.41
505.83	10404.97
506.199	10471.63
506.567	10563.83
506.936	10594.57
507.304	10706.65
507.672	10850.6
508.041	10867.55
508.409	11037.27
508.777	11013.99
509.145	11133.08
509.514	11180.77
509.882	11304.38
510.25	11295.79
510.618	11459.18
510.986	11439.29
511.354	11538.04
511.722	11748.89
512.09	11805.38
512.458	11844.25
512.826	11946.62
513.193	12018.71
513.561	12125.6
513.929	12204.24
514.297	12338.93
514.664	12373.28
515.032	12419.15
515.4	12607.85
515.767	12638.35
516.135	12706.83
516.502	12696.66
516.869	13057.33
517.237	13064.11
517.604	12993.6
517.972	13234.95
518.339	13372.12
518.706	13370.31
519.073	13465
519.44	13567.82
519.808	13778.89
520.175	13796.52
520.542	13907.02
520.909	14147.02
521.276	14149.5
521.643	14275.37
522.009	14374.58
522.376	14533.9
522.743	14572.09
523.11	14700.22
523.477	14883.49
523.843	14946.99
524.21	15169.36
524.577	15307.21
524.943	15396.02
525.31	15473.53
525.676	15730.02
526.043	15693.87
526.409	15756.46
526.776	15995.55
527.142	16150.8
527.508	16256.11
527.874	16383.57
528.241	16498.59
528.607	16547.86
528.973	16763.44
529.339	16741.52
529.705	16938.58
530.071	17098.8
530.437	17085.69
530.803	17280.94
531.169	17453.14
531.535	17431.9
531.901	17465.35
532.267	17532.01
532.632	17772.23
532.998	17796.64
533.364	17928.84
533.73	18064.65
534.095	18121.37
534.461	18193.69
534.826	18366.11
535.192	18267.81
535.557	18498.99
535.923	18474.13
536.288	18583.96
536.653	18801.81
537.019	18708.25
537.384	18801.81
537.749	18887.68
538.114	18910.05
538.479	18959.54
538.845	18974.46
539.21	19079.54
539.575	19117.51
539.94	19228.69
540.305	19296.26
540.67	19357.5
541.034	19432.53
541.399	19370.61
541.764	19508
542.129	19596.82
542.494	19663.48
542.858	19728.56
543.223	19648.11
543.587	19830.03
543.952	19750.26
544.316	19893.3
544.681	19805.4
545.045	20096.46
545.41	20154.77
545.774	20088.78
546.138	20185.27
546.503	20272.73
546.867	20279.06
547.231	20431.37
547.595	20481.31
547.959	20558.6
548.324	20524.7
548.688	20712.49
549.052	20675.88
549.416	20744.81
549.779	20707.07
550.143	20888.53
550.507	20974.18
550.871	21034.29
551.235	20950
551.599	21214.85
551.962	21193.84
552.326	21294.4
552.689	21438.57
553.053	21250.33
553.417	21347.73
553.78	21576.65
554.143	21603.54
554.507	21708.62
554.87	21769.64
555.234	21877.89
555.597	21851.22
555.96	22116.52
556.323	22005.79
556.686	22072.68
557.05	22425.67
557.413	22309.29
557.776	22429.96
558.139	22688.71
558.502	22611.43
558.865	22758.54
559.228	22931.64
559.59	22960.79
559.953	22942.94
560.316	23314.91
560.679	23220.45
561.041	23370.5
561.404	23475.81
561.767	23710.15
562.129	23564.17
562.492	23824.05
562.854	23920.09
563.217	23989.24
563.579	23968.23
563.941	24132.29
564.304	24295.22
564.666	24419.97
565.028	24518.95
565.39	24755.1
565.753	24826.06
566.115	24935.66
566.477	25020.85
566.839	25104.24
567.201	25443.44
567.563	25298.13
567.925	25518.69
568.287	25520.95
568.648	25628.3
569.01	25913.26
569.372	26047.95
569.734	26083.88
570.095	26229.86
570.457	26252.01
570.819	26524.54
571.18	26481.61
571.542	26777.87
571.903	26726.12
572.265	26920.24
572.626	27131.53
572.987	26940.35
573.349	27133.79
573.71	27231.42
574.071	27346.89
574.432	27548.47
574.794	27784.62
575.155	27635.47
575.516	27664.85
575.877	27865.3
576.238	27861
576.599	27998.85
576.96	28056.48
577.32	28109.81
577.681	28359.3
578.042	28264.16
578.403	28358.17
578.763	28380.09
579.124	28496.24
579.485	28610.82
579.845	28757.03
580.206	28634.32
580.566	28652.4
580.927	28602
581.287	28784.82
581.648	28693.3
582.008	28826.86
582.368	28822.79
582.728	28835.22
583.089	28844.93
583.449	28834.99
583.809	28841.32
584.169	28977.59
584.529	28773.75
584.889	28997.92
585.249	28831.37
585.609	28799.74
585.969	28981.43
586.329	28926.74
586.688	28992.95
587.048	28900.07
587.408	28945.04
587.768	28895.78
588.127	28953.86
588.487	28886.29
588.846	29093.74
589.206	28771.04
589.565	28850.81
589.925	29061.88
590.284	28922.45
590.643	28929.68
591.003	29012.39
591.362	29091.48
591.721	28994.53
592.08	29040.63
592.44	29056.91
592.799	28971.94
593.158	29040.63
593.517	28873.86
593.876	29034.76
594.235	29078.83
594.593	28941.65
594.952	28963.57
595.311	28826.4
595.67	29011.48
596.029	29102.78
596.387	29076.57
596.746	29197.24
597.104	28849.91
597.463	29005.83
597.822	29103.01
598.18	28999.73
598.538	28981.88
598.897	29161.31
599.255	28979.85
599.613	29430.68
599.972	29108.43
600.33	29263.45
600.688	29001.99
601.046	29180.07
601.404	29316.11
601.762	29340.97
602.12	29395.88
602.478	29438.14
602.836	29411.7
603.194	29212.38
603.552	29402.66
603.91	29301.64
604.268	29361.08
604.625	29340.06
604.983	29396.33
605.341	29278.82
605.698	29512.49
606.056	29613.28
606.413	29381.19
606.771	29557.91
607.128	29539.38
607.485	29526.72
607.843	29516.78
608.2	29614.18
608.557	29836.55
608.914	29592.03
609.272	29828.41
609.629	29866.15
609.986	29902.53
610.343	29801.52
610.7	30014.17
611.057	29965.13
611.414	29869.09
611.771	30084.68
612.127	30088.06
612.484	30239.7
612.841	30162.87
613.198	30059.59
613.554	30112.7
613.911	30223.2
614.267	30408.73
614.624	30306.59
614.98	30368.06
615.337	30627.71
615.693	30561.27
616.05	30519.92
616.406	30631.55
616.762	30643.3
617.118	30674.72
617.475	30651.89
617.831	30697.77
618.187	30844.88
618.543	30742.28
618.899	30996.29
619.255	30872
619.611	30923.75
619.967	30973.47
620.323	31034.03
620.678	31013.24
621.034	30982.05
621.39	30989.28
621.746	30901.38
622.101	31270.18
622.457	30920.13
622.812	31165.32
623.168	31268.82
623.523	31140.92
623.879	31262.72
624.234	31080.81
624.589	31199.22
624.945	31249.84
625.3	31315.15
625.655	31265.21
626.01	31387.69
626.365	31274.93
626.72	31212.78
627.075	31128.49
627.43	31213.23
627.785	31116.96
628.14	31138.66
628.495	31172.78
628.85	31286.68
629.205	31175.95
629.559	31350.63
629.914	31100.24
630.269	31109.51
630.623	30950.42
630.978	30863.19
631.332	31094.37
631.687	31082.61
632.041	30985.22
632.396	30973.01
632.75	30894.15
633.104	30985.44
633.459	30846.46
633.813	30822.51
634.167	30772.79
634.521	30918.33
634.875	30734.15
635.229	30696.64
635.583	30551.33
635.937	30484.66
636.291	30412.8
636.645	30519.92
636.999	30439.02
637.352	30459.35
637.706	30318.79
638.06	30427.94
638.413	30310.66
638.767	30276.76
639.121	30170.1
639.474	30031.34
639.828	30134.62
640.181	30167.84
640.534	30199.25
640.888	30126.26
641.241	29910.89
641.594	29882.19
641.947	30118.12
642.301	29986.82
642.654	29858.24
643.007	29785.93
643.36	29948.41
643.713	29736.89
644.066	29932.59
644.419	29757
644.771	29372.6
645.124	28983.91
645.477	29049
645.83	28937.13
646.182	29129.9
646.535	29068.43
646.888	29125.15
647.24	28975.33
647.593	29174.87
647.945	28975.33
648.298	28880.19
648.65	28788.44
649.002	28649.23
649.355	28391.61
649.707	28263.03
650.059	28263.93
650.411	28735.33
650.763	28823.92
651.115	29486.5
651.467	29197.01
651.819	29323.57
652.171	29153.63
652.523	29100.97
652.875	29119.95
653.227	29024.82
653.578	29246.73
653.93	29103.23
654.282	29047.64
654.633	28994.76
654.985	28919.28
655.337	28971.48
655.688	28905.95
656.039	29060.52
656.391	28692.4
656.742	28919.96
657.094	29003.8
657.445	28918.15
657.796	28998.15
658.147	28816.91
658.498	29001.99
658.849	28876.8
659.2	28811.49
659.551	28772.62
659.902	29009
660.253	28793.41
660.604	28891.49
660.955	28800.87
661.306	28911.82
661.656	28863.24
662.007	28884.71
662.358	28865.27
662.708	28933.29
663.059	28981.88
663.409	28574.21
663.76	28768.1
664.11	28918.6
664.461	28825.27
664.811	28815.56
665.161	28756.35
665.511	28773.3
665.862	28827.31
666.212	28919.96
666.562	28842.22
666.912	28891.71
667.262	28646.97
667.612	28799.29
667.962	28789.57
668.312	28599.29
668.662	28846.74
669.011	28937.36
669.361	28762.22
669.711	28741.89
670.06	28755.67
670.41	28718.16
670.76	28610.14
671.109	28705.95
671.459	28765.84
671.808	28631.38
672.157	28812.84
672.507	28525.62
672.856	28484.04
673.205	28616.47
673.554	28667.99
673.904	28487.2
674.253	28766.74
674.602	28568.33
674.951	28280.2
675.3	28211.5
675.649	28587.09
675.998	28590.03
676.346	28513.87
676.695	28805.84
677.044	28437.26
677.393	28411.72
677.741	28503.47
678.09	28437.26
678.438	28323.82
678.787	28456.02
679.135	28315.23
679.484	28222.8
679.832	28384.38
680.181	28142.13
680.529	28284.27
680.877	28105.07
681.225	28061.45
681.573	28362.46
681.922	28005.63
682.27	28055.8
682.618	28034.79
682.966	27916.14
683.314	27965.86
683.661	27997.95
684.009	27895.13
684.357	27642.03
684.705	27710.73
685.053	27844.96
685.4	27605.42
685.748	27533.1
686.095	27575.36
686.443	27329.27
686.79	27374.01
687.138	27411.3
687.485	27360.68
687.832	27269.61
688.18	27285.88
688.527	27097.41
688.874	27055.15
689.221	26967.69
689.568	26946.45
689.915	26861.71
690.262	26882.73
690.609	26852.44
690.956	26707.36
691.303	26686.35
691.65	26554.37
691.997	26486.58
692.344	26229.41
692.69	26253.14
693.037	26354.38
693.383	26024.89
693.73	26253.82
694.077	25897.44
694.423	25859.93
694.769	25762.3
695.116	25813.6
695.462	25699.48
695.808	25680.27
696.155	25773.38
696.501	25457
696.847	25509.65
697.193	25305.82
697.539	25299.94
697.885	25057.69
698.231	25079.83
698.577	25039.84
698.923	25053.39
699.269	24771.82
699.614	24680.07
699.96	24555.1
700.306	24565.72
700.651	24426.97
700.997	24386.75
701.342	24390.36
701.688	24323.7
702.033	24216.13
702.379	24250.7
702.724	24189.69
703.069	24130.26
703.415	23912.63
703.76	23888.91
704.105	23762.58
704.45	23735.46
704.795	23699.76
705.14	23635.13
705.485	23677.39
705.83	23418.86
706.175	23508.58
706.52	23448.92
706.865	23316.94
707.209	23253.89
707.554	23146.1
707.899	23183.39
708.243	22991.75
708.588	23165.08
708.932	22955.15
709.277	22958.53
709.621	22774.13
709.966	22732.78
710.31	22712.67
710.654	22645.1
710.998	22625.66
711.342	22697.75
711.687	22474.48
712.031	22451.66
712.375	22422.96
712.719	22449.85
713.063	22336.18
713.407	22362.84
713.75	22219.35
714.094	22215.96
714.438	22183.87
714.782	22122.85
715.125	22048.5
715.469	22261.15
715.812	22043.98
716.156	22008.28
716.499	21992.91
716.843	21983.65
717.186	21809.86
717.53	22028.62
717.873	21887.15
718.216	21877.43
718.559	21839.69
718.902	21605.12
719.246	21674.95
719.589	21647.16
719.932	21547.72
720.275	21657.33
720.617	21532.13
720.96	21556.76
721.303	21610.55
721.646	21601.51
721.989	21347.5
722.331	21448.07
722.674	21415.52
723.016	21450.1
723.359	21413.72
723.701	21421.17
724.044	21350.44
724.386	21260.95
724.729	21327.17
725.071	21224.12
725.413	21285.81
725.755	21239.71
726.097	21078.13
726.439	21061.41
726.782	21118.36
727.124	21214.17
727.465	21091.69
727.807	21020.73
728.149	21020.05
728.491	20967.85
728.833	21017.34
729.175	20930.57
729.516	20994.52
729.858	20875.88
730.199	21070.22
730.541	20957.46
730.882	20925.82
731.224	21026.83
731.565	20858.7
731.906	20783.9
732.248	20833.62
732.589	20734.41
732.93	20825.94
733.271	20865.48
733.612	20806.95
733.953	20916.1
734.294	20845.14
734.635	20794.75
734.976	20904.13
735.317	20779.38
735.658	20774.64
735.999	20718.37
736.339	20653.06
736.68	20613.06
737.021	20734.19
737.361	20654.64
737.702	20818.7
738.042	20694.87
738.383	20714.53
738.723	20758.59
739.063	20647.18
739.404	20739.16
739.744	20798.59
740.084	20589.11
740.424	20784.35
740.764	20662.55
741.104	20753.85
741.444	20782.32
741.784	20698.93
742.124	20786.16
742.464	20697.35
742.804	20776.9
743.143	20639.05
743.483	20828.2
743.823	20687.86
744.162	20692.83
744.502	20692.61
744.841	20733.51
745.181	20721.98
745.52	20806.5
745.86	20884.01
746.199	20797.01
746.538	20752.49
746.877	20846.05
747.216	20914.75
747.556	20958.59
747.895	20948.87
748.234	20841.3
748.573	20952.71
748.911	20917.01
749.25	20980.73
749.589	20898.93
749.928	20990.9
750.267	21063.44
750.605	21013.28
750.944	20950.9
751.283	21163.1
751.621	21147.73
751.96	21030.22
752.298	21127.85
752.636	21105.93
752.975	21176.21
753.313	21082.65
753.651	21297.79
753.989	21115.42
754.327	21211.46
754.666	21027.74
755.004	21269.31
755.342	21285.81
755.679	21390.67
756.017	21217.34
756.355	21331.46
756.693	21270.9
757.031	21460.04
757.368	21237.45
757.706	21304.57
758.044	21267.51
758.381	21331.01
758.719	21268.64
759.056	21428.18
759.394	21392.02
759.731	21224.12
760.068	21314.28
760.405	21284.23
760.743	21333.04
761.08	21367.62
761.417	21274.96
761.754	21234.96
762.091	21283.1
762.428	21219.82
762.765	21181.86
763.102	21228.64
763.438	21245.36
763.775	21104.8
764.112	21055.99
764.449	21103.44
764.785	21030.68
765.122	21016.44
765.458	20889.66
765.795	20980.96
766.131	20997
766.467	21023.67
766.804	20746.39
767.14	20709.1
767.476	20698.03
767.812	20599.27
768.148	20698.03
768.485	20664.58
768.821	20426.62
769.157	20572.38
769.492	20433.63
769.828	20421.43
770.164	20256.68
770.5	20252.62
770.836	20268.44
771.171	20176.69
771.507	20094.2
771.842	19997.03
772.178	20001.1
772.513	19896.92
772.849	19931.95
773.184	19808.11
773.519	19772.86
773.855	19659.64
774.19	19621
774.525	19702.35
774.86	19652.41
775.195	19513.65
775.53	19373.54
775.865	19357.5
776.2	19274.34
776.535	19143.27
776.87	19313.21
777.205	19108.24
777.539	19002.48
777.874	19053.1
778.209	18791.86
778.543	18868.92
778.878	18736.72
779.212	18789.15
779.547	18612.43
779.881	18596.62
780.215	18474.81
780.55	18574.7
780.884	18499.44
781.218	18355.27
781.552	18387.58
781.886	18266.91
782.22	18038.66
782.554	18112.56
782.888	17997.31
783.222	17916.41
783.556	17815.17
783.889	17777.65
784.223	17640.03
784.557	17816.52
784.89	17712.12
785.224	17553.93
785.557	17462.86
785.891	17528.17
786.224	17444.78
786.558	17393.71
786.891	17238.91
787.224	17214.28
787.557	17129.54
787.891	17114.62
788.224	17014.96
788.557	17049.09
788.89	16989.2
789.223	17010.67
789.556	16879.15
789.888	16865.59
790.221	16740.85
790.554	16574.07
790.887	16677.34
791.219	16672.82
791.552	16521.19
791.884	16533.62
792.217	16413.85
792.549	16425.37
792.882	16240.07
793.214	16193.74
793.546	16203.01
793.879	16151.71
794.211	15999.85
794.543	16118.26
794.875	16052.05
795.207	16063.12
795.539	15911.71
795.871	15919.85
796.203	15889.34
796.535	15636.24
796.867	15745.39
797.198	15624.04
797.53	15591.72
797.862	15467.43
798.193	15518.73
798.525	15408.45
798.856	15439.41
799.188	15308.79
799.519	15196.7
799.85	15221.56
800.182	15196.48
800.513	15209.81
800.844	15073.32
801.175	15163.03
801.506	15126.2
801.837	14979.99
802.168	14987.67
802.499	15015.47
802.83	14823.38
803.161	14824.96
803.491	14753.1
803.822	14834.45
804.153	14777.28
804.483	14680.11
804.814	14542.94
805.145	14590.62
805.475	14591.07
805.805	14514.46
806.136	14510.62
806.466	14530.73
806.796	14485.09
807.126	14292.32
807.457	14334.13
807.787	14245.77
808.117	14158.09
808.447	14171.2
808.777	14209.16
809.107	14109.95
809.436	14128.71
809.766	13997.19
810.096	14050.75
810.426	13952.9
810.755	14005.55
811.085	13968.49
811.414	13966.68
811.744	13855.95
812.073	13880.13
812.403	13796.06
812.732	13710.19
813.061	13823.63
813.39	13646.01
813.719	13606.01
814.049	13732.34
814.378	13673.13
814.707	13544.77
815.036	13604.2
815.365	13447.15
815.693	13418.9
816.022	13393.81
816.351	13455.51
816.68	13255.06
817.008	13352.69
817.337	13233.82
817.665	13209.41
817.994	13173.48
818.322	13268.62
818.651	13185.68
818.979	13070.66
819.307	13079.47
819.636	13078.57
819.964	13027.5
820.292	13074.27
820.62	13036.31
820.948	13047.83
821.276	13093.71
821.604	12942.75
821.932	13154.5
822.259	13104.33
822.587	13072.47
822.915	13081.73
823.243	13069.98
823.57	13059.13
823.898	13135.06
824.225	13020.49
824.553	13023.43
824.88	13074.73
825.207	13123.77
825.535	13049.42
825.862	13076.76
826.189	13066.37
826.516	13156.76
826.843	13098.68
827.17	13059.59
827.497	13104.33
827.824	13101.62
828.151	13165.12
828.478	13031.79
828.805	13148.4
829.131	13091.45
829.458	13050.55
829.785	13027.27
830.111	13053.94
830.438	13160.6
830.764	13037.89
831.09	13072.92
831.417	12927.16
831.743	13108.62
832.069	13039.7
832.395	12992.7
832.722	13041.96
833.048	13056.42
833.374	13028.17
833.7	12951.11
834.026	12998.12
834.351	12947.72
834.677	12982.07
835.003	13014.39
835.329	12942.53
835.654	12905.92
835.98	12876.09
836.306	12981.17
836.631	12924.45
836.956	12976.2
837.282	12992.47
837.607	12922.19
837.932	12930.32
838.258	12928.74
838.583	12873.38
838.908	12770.78
839.233	12782.98
839.558	12728.07
839.883	12734.17
840.208	12706.83
840.533	12760.84
840.858	12698.69
841.182	12695.53
841.507	12658.92
841.832	12590.45
842.156	12588.41
842.481	12570.56
842.805	12603.55
843.13	12492.6
843.454	12499.6
843.778	12465.03
844.103	12500.96
844.427	12414.41
844.751	12440.62
845.075	12390.23
845.399	12341.19
845.723	12272.49
846.047	12275.65
846.371	12184.58
846.695	12169.21
847.019	12062.32
847.343	12091.48
847.666	12017.81
847.99	12017.81
848.313	11913.18
848.637	11846.96
848.96	11811.26
849.284	11816.45
849.607	11785.04
849.931	11771.71
850.254	11669.11
850.577	11600.87
850.9	11514.77
851.223	11462.79
851.546	11540.98
851.869	11392.51
852.192	11536.69
852.515	11341.44
852.838	11329.69
853.161	11259.86
853.483	11236.81
853.806	11186.19
854.129	11164.72
854.451	11167.43
854.774	11079.3
855.096	11051.5
855.419	10973.77
855.741	10936.03
856.063	10978.51
856.385	10896.71
856.708	10822.13
857.03	10849.93
857.352	10837.5
857.674	10820.1
857.996	10725.18
858.318	10679.99
858.64	10741
858.961	10689.03
859.283	10659.2
859.605	10664.17
859.926	10558.63
860.248	10583.72
860.57	10528.13
860.891	10513.21
861.212	10439.54
861.534	10413.78
861.855	10374.46
862.176	10373.55
862.498	10381.69
862.819	10351.18
863.14	10352.31
863.461	10286.78
863.782	10302.82
864.103	10217.63
864.424	10262.15
864.745	10178.31
865.065	10167.68
865.386	10143.96
865.707	10140.57
866.027	10136.05
866.348	10181.24
866.668	10099.44
866.989	10115.03
867.309	10034.81
867.63	10116.16
867.95	10075.71
868.27	10070.51
868.59	10127.91
868.91	10003.62
869.23	10005.88
869.55	9984.19
869.87	10024.19
870.19	9939.44
870.51	9944.87
870.83	9966.11
871.15	9905.54
871.469	9901.7
871.789	9943.28
872.109	9857.41
872.428	9969.95
872.748	9866.9
873.067	9908.26
873.386	9890.4
873.706	9913.23
874.025	9757.53
874.344	9830.97
874.663	9779.45
874.982	9762.27
875.301	9781.25
875.62	9759.56
875.939	9638.21
876.258	9648.38
876.577	9604.08
876.896	9621.03
877.214	9557.08
877.533	9657.87
877.852	9584.88
878.17	9586.91
878.489	9598.43
878.807	9546.91
879.125	9627.81
879.444	9524.99
879.762	9504.65
880.08	9475.5
880.398	9397.99
880.716	9446.12
881.034	9428.95
881.352	9398.21
881.67	9349.63
881.988	9428.04
882.306	9381.26
882.624	9393.92
882.941	9338.55
883.259	9274.6
883.577	9294.49
883.894	9277.31
884.212	9274.6
884.529	9238.44
884.846	9268.27
885.164	9212.23
885.481	9178.56
885.798	9208.16
886.115	9073.7
886.432	9102.63
886.75	9083.19
887.067	9062.18
887.383	9063.98
887.7	9043.87
888.017	8979.47
888.334	9001.84
888.651	8903.76
888.967	8911.22
889.284	8939.92
889.6	8855.63
889.917	8842.07
890.233	8793.71
890.55	8840.26
890.866	8823.77
891.182	8805.91
891.498	8758.46
891.815	8712.81
892.131	8718.23
892.447	8726.59
892.763	8638.23
893.079	8600.95
893.395	8602.08
893.71	8581.06
894.026	8521.85
894.342	8534.06
894.657	8466.49
894.973	8483.66
895.289	8444.11
895.604	8392.36
895.92	8400.95
896.235	8333.16
896.55	8340.61
896.865	8377.45
897.181	8328.41
897.496	8340.84
897.811	8330.22
898.126	8226.94
898.441	8216.1
898.756	8182.88
899.071	8084.58
899.386	8108.76
899.7	8073.28
900.015	7970.91
900.33	7999.83
900.644	7985.82
900.959	7990.57
901.273	7919.38
901.588	7926.16
901.902	7911.7
902.216	7849.1
902.531	7839.16
902.845	7738.37
903.159	7755.77
903.473	7739.95
903.787	7707.18
904.101	7645.49
904.415	7744.02
904.729	7613.85
905.042	7545.61
905.356	7640.29
905.67	7567.53
905.984	7546.28
906.297	7526.62
906.611	7467.87
906.924	7504.93
907.237	7434.2
907.551	7489.11
907.864	7386.06
908.177	7389
908.491	7322.56
908.804	7318.72
909.117	7250.47
909.43	7226.07
909.743	7176.35
910.056	7180.42
910.368	7112.17
910.681	7183.81
910.994	7149.91
911.307	7029.24
911.619	6994.21
911.932	7014.32
912.244	6940.42
912.557	6907.88
912.869	6892.52
913.181	6960.31
913.494	6902.46
913.806	6829.24
914.118	6848.68
914.43	6793.76
914.742	6745.85
915.054	6697.95
915.366	6692.3
915.678	6725.52
915.99	6658.85
916.302	6604.61
916.613	6610.72
916.925	6612.52
917.236	6523.94
917.548	6575.24
917.859	6561.23
918.171	6492.98
918.482	6402.59
918.794	6435.35
919.105	6414.34
919.416	6380.21
919.727	6340.21
920.038	6314.23
920.349	6342.7
920.66	6270.39
920.971	6248.69
921.282	6231.74
921.593	6157.17
921.903	6144.97
922.214	6151.75
922.525	6094.57
922.835	6028.36
923.146	6066.55
923.456	6088.7
923.767	5951.07
924.077	6029.26
924.387	5964.18
924.697	5897.74
925.008	5929.38
925.318	5841.92
925.628	5878.31
925.938	5835.14
926.248	5809.16
926.558	5754.47
926.867	5810.51
927.177	5800.34
927.487	5753.56
927.796	5687.8
928.106	5684.86
928.416	5676.73
928.725	5647.8
929.034	5617.75
929.344	5632.44
929.653	5592.44
929.962	5549.27
930.271	5548.6
930.581	5514.7
930.89	5500.91
931.199	5401.48
931.508	5459.56
931.817	5407.13
932.125	5424.53
932.434	5409.84
932.743	5381.14
933.051	5300.69
933.36	5266.57
933.669	5260.02
933.977	5240.58
934.286	5232.67
934.594	5242.84
934.902	5223.41
935.21	5184.76
935.519	5184.99
935.827	5200.81
936.135	5133.24
936.443	5083.3
936.751	5010.98
937.059	5005.56
937.367	5045.56
937.674	4968.27
937.982	5031.77
938.29	4958.78
938.597	4952.68
938.905	4910.87
939.213	4904.09
939.52	4865
939.827	4857.09
940.135	4834.04
940.442	4832.23
940.749	4837.2
941.056	4842.17
941.363	4792.01
941.67	4774.38
941.977	4708.85
942.284	4709.75
942.591	4731.44
942.898	4669.52
943.205	4672.24
943.511	4650.99
943.818	4610.54
944.125	4562.63
944.431	4581.62
944.738	4523.09
945.044	4520.83
945.35	4496.2
945.657	4487.16
945.963	4516.31
946.269	4442.64
946.575	4446.25
946.881	4432.69
947.187	4380.49
947.493	4390.66
947.799	4359.02
948.105	4395.63
948.41	4328.74
948.716	4337.33
949.022	4332.81
949.327	4260.95
949.633	4252.36
949.938	4241.51
950.244	4251
950.549	4183.89
950.854	4200.61
951.16	4181.18
951.465	4182.53
951.77	4143.21
952.075	4109.09
952.38	4123.78
952.685	4092.36
952.99	4054.17
953.294	4084.91
953.599	4039.03
953.904	4027.96
954.209	3994.29
954.513	3998.81
954.818	3973.27
955.122	3983.44
955.426	3961.29
955.731	3911.58
956.035	3877.68
956.339	3926.04
956.643	3875.42
956.948	3839.26
957.252	3830.9
957.556	3830.45
957.86	3808.76
958.163	3775.99
958.467	3768.76
958.771	3760.4
959.075	3787.29
959.378	3714.75
959.682	3721.98
959.985	3751.13
960.289	3696.89
960.592	3678.36
960.896	3674.97
961.199	3630
961.502	3640.85
961.805	3624.58
962.108	3586.16
962.411	3616.67
962.714	3572.15
963.017	3544.58
963.32	3570.8
963.623	3569.44
963.926	3509.1
964.228	3526.28
964.531	3507.75
964.833	3465.26
965.136	3423.23
965.438	3451.48
965.741	3420.74
966.043	3403.34
966.345	3423.91
966.648	3379.16
966.95	3367.19
967.252	3364.47
967.554	3287.64
967.856	3338.03
968.158	3313.18
968.46	3297.13
968.761	3288.32
969.063	3286.74
969.365	3271.14
969.666	3226.85
969.968	3200.86
970.269	3223.23
970.571	3159.28
970.872	3178.72
971.174	3144.82
971.475	3127.87
971.776	3149.11
972.077	3146.17
972.378	3151.6
972.679	3122.9
972.98	3077.7
973.281	3091.71
973.582	3048.32
973.883	3086.97
974.183	3054.88
974.484	3032.28
974.785	2990.25
975.085	3013.07
975.386	2986.4
975.686	2964.48
975.986	2972.17
976.287	2960.64
976.587	2912.28
976.887	2880.64
977.187	2938.27
977.487	2887.88
977.787	2883.58
978.087	2868.67
978.387	2842
978.687	2815.11
978.987	2822.57
979.286	2858.05
979.586	2790.48
979.885	2813.08
980.185	2808.33
980.484	2768.33
980.784	2756.13
981.083	2732.63
981.382	2763.59
981.682	2764.72
981.981	2728.11
982.28	2665.51
982.579	2648.11
982.878	2699.86
983.177	2732.17
983.475	2666.19
983.774	2648.11
984.073	2657.83
984.372	2630.03
984.67	2616.7
984.969	2620.54
985.267	2630.93
985.566	2596.36
985.864	2596.13
986.162	2539.64
986.461	2563.36
986.759	2538.96
987.057	2511.84
987.355	2507.32
987.653	2487.21
987.951	2471.39
988.249	2496.93
988.547	2506.87
988.844	2463.48
989.142	2443.59
989.44	2457.83
989.737	2429.36
990.035	2426.87
990.332	2403.14
990.63	2367.89
990.927	2378.51
991.224	2375.57
991.521	2349.36
991.819	2321.56
992.116	2367.66
992.413	2346.87
992.71	2317.04
993.006	2312.07
993.303	2283.82
993.6	2292.41
993.897	2253.77
994.193	2272.52
994.49	2275.69
994.787	2255.12
995.083	2231.85
995.379	2216.48
995.676	2191.85
995.972	2214.67
996.268	2186.2
996.565	2180.55
996.861	2191.4
997.157	2180.1
997.453	2180.1
997.749	2139.87
998.044	2130.83
998.34	2105.98
998.636	2164.51
998.932	2105.3
999.227	2054
999.523	2054.9
999.818	2070.5
1000.114	2065.98
1000.409	2058.97
1000.704	2028.24
1001	2048.12
1001.295	2024.62
1001.59	1995.24
1001.885	2016.03
1002.18	1958.18
1002.475	1966.32
1002.77	1978.52
1003.065	1978.52
1003.359	1953.44
1003.654	1923.61
1003.949	1912.08
1004.243	1920.22
1004.538	1874.57
1004.832	1900.33
1005.127	1907.79
1005.421	1883.38
1005.715	1859.65
1006.009	1880.22
1006.304	1823.05
1006.598	1853.1
1006.892	1837.96
1007.186	1838.64
1007.48	1816.49
1007.773	1804.06
1008.067	1823.5
1008.361	1767.45
1008.655	1789.6
1008.948	1762.48
1009.242	1761.13
1009.535	1748.02
1009.829	1716.16
1010.122	1722.93
1010.415	1717.74
1010.708	1714.35
1011.001	1711.18
1011.295	1693.78
1011.588	1639.32
1011.881	1656.95
1012.173	1675.25
1012.466	1674.8
1012.759	1621.69
1013.052	1635.71
1013.344	1628.93
1013.637	1614.46
1013.93	1603.39
1014.222	1607.01
1014.514	1585.54
1014.807	1573.79
1015.099	1552.32
1015.391	1552.77
1015.683	1527.91
1015.976	1536.95
1016.268	1534.47
1016.56	1524.07
1016.851	1511.19
1017.143	1493.11
1017.435	1498.53
1017.727	1508.48
1018.018	1460.12
1018.31	1486.78
1018.602	1455.6
1018.893	1481.13
1019.185	1448.37
1019.476	1423.28
1019.767	1428.71
1020.058	1447.91
1020.35	1420.12
1020.641	1402.94
1020.932	1404.07
1021.223	1396.62
1021.514	1367.92
1021.804	1342.83
1022.095	1363.62
1022.386	1331.76
1022.677	1330.63
1022.967	1319.78
1023.258	1291.08
1023.548	1320.69
1023.839	1317.97
1024.129	1306.45
1024.419	1291.53
1024.709	1287.92
1025	1265.77
1025.29	1281.82
1025.58	1282.49
1025.87	1249.28
1026.16	1237.75
1026.449	1227.81
1026.739	1250.86
1027.029	1221.48
1027.319	1211.99
1027.608	1221.03
1027.898	1201.37
1028.187	1197.3
1028.477	1162.27
1028.766	1189.84
1029.055	1146.45
1029.344	1142.39
1029.634	1147.81
1029.923	1108.49
1030.212	1151.88
1030.501	1122.05
1030.79	1107.81
1031.078	1124.98
1031.367	1103.06
1031.656	1112.78
1031.945	1099.45
1032.233	1091.54
1032.522	1084.31
1032.81	1084.99
1033.099	1076.62
1033.387	1056.96
1033.675	1089.96
1033.963	1050.18
1034.251	1059
1034.54	1031.43
1034.828	1034.82
1035.116	1017.42
1035.403	1039.56
1035.691	1007.25
1035.979	1011.77
1036.267	1023.52
1036.554	1018.09
1036.842	990.98
1037.129	970.86
1037.417	999.34
1037.704	969.73
1037.992	973.35
1038.279	972.22
1038.566	968.15
1038.853	968.15
1039.14	968.15
