Data from 350_FLMS001491_007.txt Node
Date: Thu Apr 19 15:44:40 BST 2018
User: hsy
Spectrometer: FLMS00149
Trigger mode: 0
Integration Time (sec): 1.000000E-2
Scans to average: 10
Electric dark correction enabled: true
Nonlinearity correction enabled: false
Boxcar width: 0
XAxis mode: Wavelengths
Number of Pixels in Spectrum: 2048
>>>>>Begin Spectral Data<<<<<
341.393	-2.47
341.776	-2.47
342.16	-2.47
342.543	-61.68
342.927	-63.04
343.31	-87.22
343.693	-77.27
344.077	-58.74
344.46	-56.71
344.843	-55.58
345.226	-36.82
345.61	-38.85
345.993	-11.29
346.376	-25.3
346.759	25.1
347.142	45.21
347.525	37.75
347.908	59
348.291	71.65
348.674	94.93
349.057	114.14
349.44	126.56
349.823	134.02
350.206	166.79
350.588	216.05
350.971	228.93
351.354	252.21
351.737	254.02
352.119	244.08
352.502	296.96
352.884	286.56
353.267	308.48
353.65	322.27
354.032	320.01
354.414	320.68
354.797	342.15
355.179	352.1
355.562	343.28
355.944	365.65
356.326	352.32
356.709	354.81
357.091	364.75
357.473	350.51
357.855	365.65
358.238	367.91
358.62	379.67
359.002	362.26
359.384	378.99
359.766	376.73
360.148	383.96
360.53	377.41
360.912	360.46
361.294	377.18
361.676	383.28
362.057	361.81
362.439	360.46
362.821	364.07
363.203	355.49
363.584	350.06
363.966	360.46
364.348	359.1
364.729	376.5
365.111	366.56
365.493	357.29
365.874	326.11
366.256	360.91
366.637	355.94
367.019	353
367.4	356.61
367.781	367.46
368.163	353
368.544	325.66
368.925	365.65
369.306	355.03
369.688	336.95
370.069	376.28
370.45	371.76
370.831	362.26
371.212	380.57
371.593	363.62
371.974	378.54
372.355	343.73
372.736	364.52
373.117	371.98
373.498	347.58
373.879	350.97
374.26	367.01
374.641	376.5
375.021	342.38
375.402	372.43
375.783	367.91
376.163	381.47
376.544	387.57
376.925	373.79
377.305	403.85
377.686	375.6
378.066	378.99
378.447	396.84
378.827	372.66
379.208	396.16
379.588	390.96
379.968	379.89
380.349	404.75
380.729	376.95
381.109	400.68
381.489	391.87
381.87	397.29
382.25	406.11
382.63	388.93
383.01	414.69
383.39	424.64
383.77	412.88
384.15	404.3
384.53	440.68
384.91	425.77
385.29	437.74
385.67	422.6
386.049	420.34
386.429	446.1
386.809	429.38
387.189	428.48
387.568	420.57
387.948	442.26
388.328	450.85
388.707	460.79
389.087	448.14
389.466	452.21
389.846	436.16
390.225	434.58
390.605	454.92
390.984	453.34
391.363	453.34
391.743	462.15
392.122	461.24
392.501	477.52
392.881	475.03
393.26	479.55
393.639	472.54
394.018	479.78
394.397	517.29
394.776	483.17
395.155	484.3
395.534	506.89
395.913	508.02
396.292	511.64
396.671	504.86
397.05	517.29
397.429	517.74
397.808	506.89
398.186	510.28
398.565	511.87
398.944	515.03
399.323	510.51
399.701	515.71
400.08	527.23
400.458	531.07
400.837	547.8
401.215	534.24
401.594	541.02
401.972	554.35
402.351	527.01
402.729	543.73
403.107	553.22
403.486	564.29
403.864	578.76
404.242	562.94
404.62	580.79
404.999	582.6
405.377	576.27
405.755	584.86
406.133	605.65
406.511	610.17
406.889	594.57
407.267	601.35
407.645	620.56
408.023	601.13
408.401	622.14
408.779	626.89
409.156	630.73
409.534	641.81
409.912	638.87
410.29	658.08
410.667	654.23
411.045	670.96
411.422	669.38
411.8	659.43
412.178	688.36
412.555	681.58
412.933	706.44
413.31	699.66
413.687	704.63
414.065	703.05
414.442	722.03
414.819	731.97
415.197	718.64
415.574	738.53
415.951	741.92
416.328	724.97
416.705	752.31
417.082	735.59
417.46	767.45
417.837	753.89
418.214	784.63
418.591	794.57
418.967	766.55
419.344	793.44
419.721	793.89
420.098	795.93
420.475	801.8
420.852	814.23
421.228	825.98
421.605	810.61
421.982	822.82
422.358	834.79
422.735	833.89
423.111	837.05
423.488	860.56
423.864	858.75
424.241	863.49
424.617	850.39
424.994	891.29
425.37	862.59
425.746	897.39
426.123	895.36
426.499	923.38
426.875	902.82
427.251	937.62
427.627	948.69
428.003	954.11
428.379	954.79
428.756	983.49
429.132	967.45
429.507	988.46
429.883	972.19
430.259	1017.16
430.635	1007.45
431.011	1014.68
431.387	1045.41
431.763	1085.86
432.138	1068.69
432.514	1063.04
432.89	1093.77
433.265	1103.04
433.641	1126.99
434.016	1134.67
434.392	1144.62
434.767	1176.48
435.143	1159.98
435.518	1156.14
435.894	1167.22
436.269	1186.42
436.644	1201.11
437.02	1183.49
437.395	1223.48
437.77	1200.89
438.145	1235.46
438.52	1226.42
438.895	1245.41
439.271	1250.38
439.646	1290.83
440.021	1270.04
440.395	1286.31
440.77	1268.91
441.145	1312.07
441.52	1334.89
441.895	1333.76
442.27	1360.43
442.645	1341.22
443.019	1334.67
443.394	1337.61
443.769	1369.92
444.143	1330.15
444.518	1397.94
444.892	1361.79
445.267	1380.99
445.641	1383.25
446.016	1414.67
446.39	1391.84
446.764	1425.51
447.139	1424.61
447.513	1442.91
447.887	1434.55
448.262	1438.17
448.636	1434.55
449.01	1487.43
449.384	1491.27
449.758	1493.76
450.132	1496.92
450.506	1515.23
450.88	1536.47
451.254	1534.66
451.628	1513.19
452.002	1533.99
452.376	1574.44
452.75	1585.96
453.123	1591.61
453.497	1618.05
453.871	1611.27
454.244	1666.64
454.618	1665.28
454.992	1703.92
455.365	1721.78
455.739	1729.91
456.112	1745.28
456.486	1771.94
456.859	1766.75
457.232	1855.11
457.606	1820.08
457.979	1852.85
458.352	1884.48
458.725	1899.85
459.099	1875.67
459.472	1953.41
459.845	1970.13
460.218	1996.8
460.591	2030.47
460.964	2009.68
461.337	2030.24
461.71	2081.32
462.083	2110.02
462.456	2125.83
462.829	2092.16
463.201	2186.85
463.574	2181.43
463.947	2205.83
464.32	2219.16
464.692	2218.49
465.065	2267.07
465.438	2289.45
465.81	2307.3
466.183	2355.66
466.555	2345.94
466.928	2385.94
467.3	2424.81
467.672	2427.52
468.045	2485.37
468.417	2486.95
468.789	2503.45
469.161	2517.01
469.534	2560.62
469.906	2600.62
470.278	2633.84
470.65	2669.77
471.022	2724.24
471.394	2749.55
471.766	2799.26
472.138	2797.23
472.51	2860.05
472.882	2886.49
473.253	2897.57
473.625	2959.94
473.997	3032.7
474.369	3064.57
474.74	3063.21
475.112	3124.23
475.484	3162.19
475.855	3243.77
476.227	3229.08
476.598	3329.19
476.97	3364.67
477.341	3443.31
477.713	3464.56
478.084	3543.65
478.455	3603.08
478.827	3640.6
479.198	3727.83
479.569	3770.54
479.94	3828.16
480.311	3890.53
480.682	3941.61
481.053	4035.84
481.424	4080.58
481.795	4180.47
482.166	4219.56
482.537	4269.28
482.908	4386.79
483.279	4428.37
483.65	4515.38
484.021	4594.24
484.391	4649.16
484.762	4658.42
485.133	4724.41
485.503	4831.3
485.874	4917.4
486.244	4989.04
486.615	5058.86
486.985	5166.88
487.356	5236.49
487.726	5300.67
488.097	5439.19
488.467	5485.75
488.837	5590.83
489.207	5625.63
489.578	5750.37
489.948	5805.51
490.318	5871.95
490.688	5926.64
491.058	6087.09
491.428	6130.7
491.798	6218.61
492.168	6334.99
492.538	6354.65
492.908	6465.38
493.278	6581.31
493.648	6596.22
494.017	6674.41
494.387	6701.31
494.757	6871.25
495.126	6868.31
495.496	7016.78
495.866	7041.86
496.235	7110.79
496.605	7193.95
496.974	7273.72
497.344	7326.38
497.713	7366.15
498.082	7482.08
498.452	7599.59
498.821	7623.54
499.19	7666.03
499.559	7764.78
499.928	7841.84
500.298	7921.16
500.667	8036.86
501.036	8014.04
501.405	8103.08
501.774	8121.83
502.143	8204.09
502.512	8316.18
502.88	8374.94
503.249	8404.09
503.618	8524.31
503.987	8502.39
504.356	8650.18
504.724	8746.22
505.093	8731.31
505.462	8827.13
505.83	8895.37
506.199	8896.73
506.567	9065.99
506.936	9136.5
507.304	9255.14
507.672	9228.25
508.041	9335.59
508.409	9441.12
508.777	9534.9
509.145	9584.62
509.514	9621.46
509.882	9793.88
510.25	9762.47
510.618	9840.21
510.986	9842.24
511.354	10067.55
511.722	10096.92
512.09	10167.66
512.458	10197.71
512.826	10353.41
513.193	10390.7
513.561	10454.88
513.929	10534.2
514.297	10697.81
514.664	10693.52
515.032	10857.13
515.4	10970.35
515.767	10959.95
516.135	10990.91
516.502	10966.05
516.869	11177.12
517.237	11271.36
517.604	11230.23
517.972	11423.67
518.339	11451.01
518.706	11587.73
519.073	11607.17
519.44	11723.77
519.808	11802.87
520.175	11896.88
520.542	12041.96
520.909	12085.57
521.276	12140.26
521.643	12343.87
522.009	12403.98
522.376	12509.06
522.743	12531.89
523.11	12701.15
523.477	12865.89
523.843	12891.43
524.21	13097.75
524.577	13113.34
524.943	13255.71
525.31	13341.58
525.676	13464.97
526.043	13594.68
526.409	13694.12
526.776	13802.82
527.142	13837.16
527.508	14038.52
527.874	14107.89
528.241	14260.66
528.607	14285.51
528.973	14423.59
529.339	14470.14
529.705	14624.49
530.071	14749.46
530.437	14824.71
530.803	14935.89
531.169	15016.57
531.535	15067.19
531.901	15144.02
532.267	15236.68
532.632	15343.34
532.998	15451.13
533.364	15470.34
533.73	15541.07
534.095	15735.42
534.461	15738.58
534.826	15759.6
535.192	15830.56
535.557	16048.63
535.923	15949.65
536.288	16047.28
536.653	16188.97
537.019	16228.29
537.384	16327.72
537.749	16270.09
538.114	16352.8
538.479	16466.47
538.845	16458.56
539.21	16543.99
539.575	16591.22
539.94	16633.7
540.305	16741.49
540.67	16675.96
541.034	16829.4
541.399	16814.71
541.764	16947.37
542.129	17020.36
542.494	17003.86
542.858	17064.42
543.223	17135.38
543.587	17248.15
543.952	17221.71
544.316	17365.89
544.681	17328.82
545.045	17439.1
545.41	17519.1
545.774	17549.38
546.138	17584.64
546.503	17627.8
546.867	17622.38
547.231	17704.18
547.595	17796.83
547.959	17874.8
548.324	17872.31
548.688	17926.77
549.052	18040.44
549.416	18055.36
549.779	18035.25
550.143	18140.1
550.507	18218.74
550.871	18322.47
551.235	18296.93
551.599	18432.52
551.962	18505.06
552.326	18508.68
552.689	18546.87
553.053	18603.14
553.417	18613.54
553.78	18858.05
554.143	18853.08
554.507	18949.57
554.87	19076.12
555.234	19184.14
555.597	18977.37
555.96	19234.31
556.323	19307.3
556.686	19392.95
557.05	19279.51
557.413	19536.45
557.776	19399.96
558.139	19596.34
558.502	19611.7
558.865	19662.77
559.228	19917.46
559.59	20002.88
559.953	20039.49
560.316	20193.38
560.679	20185.92
561.041	20390.21
561.404	20392.47
561.767	20699.13
562.129	20498.23
562.492	20821.16
562.854	20834.72
563.217	20841.95
563.579	20937.77
563.941	21122.4
564.304	21171.89
564.666	21354.48
565.028	21399
565.39	21522.84
565.753	21810.51
566.115	21661.14
566.477	21888.7
566.839	21874.24
567.201	22339.31
567.563	22084.41
567.925	22419.31
568.287	22400.33
568.648	22503.6
569.01	22613.88
569.372	22809.81
569.734	22634.45
570.095	22917.6
570.457	23131.61
570.819	23122.34
571.18	23192.62
571.542	23424.71
571.903	23360.76
572.265	23441.43
572.626	23651.14
572.987	23667.41
573.349	23829.44
573.71	23809.33
574.071	23943.57
574.432	23992.15
574.794	24302.43
575.155	24260.17
575.516	24279.83
575.877	24374.74
576.238	24430.78
576.599	24561.63
576.96	24529.54
577.32	24670.78
577.681	24654.73
578.042	24757.1
578.403	24984.44
578.763	24917.33
579.124	24825.12
579.485	25047.94
579.845	25101.28
580.206	25092.69
580.566	25166.58
580.927	25063.76
581.287	25215.62
581.648	25157.54
582.008	25220.37
582.368	25251.55
582.728	25369.06
583.089	25225.57
583.449	25230.54
583.809	25260.14
584.169	25402.28
584.529	25304.21
584.889	25497.2
585.249	25303.98
585.609	25353.7
585.969	25501.26
586.329	25271.44
586.688	25470.76
587.048	25443.86
587.408	25309.63
587.768	25398.44
588.127	25567.93
588.487	25341.27
588.846	25599.12
589.206	25294.49
589.565	25240.71
589.925	25368.39
590.284	25319.57
590.643	25355.05
591.003	25213.36
591.362	25475.5
591.721	25486.12
592.08	25424.66
592.44	25491.1
592.799	25513.47
593.158	25338.1
593.517	25391.44
593.876	25401.61
594.235	25265.56
594.593	25366.35
594.952	25502.85
595.311	25427.14
595.67	25247.03
596.029	25571.77
596.387	25564.31
596.746	25573.8
597.104	25444.99
597.463	25486.35
597.822	25574.93
598.18	25440.7
598.538	25341.49
598.897	25505.56
599.255	25358.22
599.613	25645.67
599.972	25368.39
600.33	25477.31
600.688	25555.05
601.046	25600.24
601.404	25710.07
601.762	25661.71
602.12	25724.08
602.478	25650.41
602.836	25675.05
603.194	25528.38
603.552	25732.9
603.91	25633.69
604.268	25738.55
604.625	25731.09
604.983	25785.55
605.341	25609.74
605.698	25906.68
606.056	25940.12
606.413	25767.47
606.771	25964.98
607.128	25876.85
607.485	25884.76
607.843	25891.31
608.2	25999.78
608.557	26099.67
608.914	25850.41
609.272	26052.44
609.629	26211.53
609.986	26255.37
610.343	26163.62
610.7	26409.72
611.057	26420.34
611.414	26221.7
611.771	26357.29
612.127	26358.87
612.484	26514.35
612.841	26587.11
613.198	26392.31
613.554	26364.07
613.911	26532.88
614.267	26670.73
614.624	26546.43
614.98	26743.49
615.337	26816.48
615.693	26715.92
616.05	26748.92
616.406	26881.57
616.762	26811.96
617.118	26762.25
617.475	26709.82
617.831	26981.68
618.187	26985.29
618.543	27012.64
618.899	27073.88
619.255	27096.25
619.611	27006.99
619.967	27101.9
620.323	27223.71
620.678	27089.47
621.034	27110.49
621.39	27107.1
621.746	27014.67
622.101	27459.41
622.457	27194.33
622.812	27366.75
623.168	27388.22
623.523	27345.96
623.879	27418.28
624.234	27192.75
624.589	27362.01
624.945	27266.64
625.3	27326.08
625.655	27311.39
626.01	27279.75
626.365	27416.02
626.72	27451.27
627.075	27273.87
627.43	27359.29
627.785	27354.1
628.14	27307.54
628.495	27340.76
628.85	27383.47
629.205	27285.85
629.559	27431.61
629.914	27313.87
630.269	27285.85
630.623	27183.25
630.978	27084.05
631.332	27284.72
631.687	27329.24
632.041	27189.36
632.396	27222.35
632.75	27108
633.104	27204.04
633.459	26954.11
633.813	27056.25
634.167	26982.58
634.521	27064.61
634.875	27004.28
635.229	26933.54
635.583	26758.41
635.937	26783.94
636.291	26912.53
636.645	26813.09
636.999	26655.81
637.352	26785.52
637.706	26591.63
638.06	26785.98
638.413	26561.58
638.767	26558.86
639.121	26590.95
639.474	26512.99
639.828	26573.55
640.181	26498.07
640.534	26593.67
640.888	26470.73
641.241	26292.66
641.594	26238.87
641.947	26304.63
642.301	26345.54
642.654	26233.67
643.007	26183.73
643.36	26205.88
643.713	26230.28
644.066	26261.92
644.419	26054.7
644.771	25585.78
645.124	25489.29
645.477	25464.88
645.83	25453.58
646.182	25470.08
646.535	25534.26
646.888	25483.19
647.24	25456.52
647.593	25590.3
647.945	25448.38
648.298	25352.12
648.65	25168.62
649.002	24974.72
649.355	24907.16
649.707	24668.29
650.059	24611.12
650.411	25006.81
650.763	25128.39
651.115	25681.82
651.467	25563.64
651.819	25520.02
652.171	25481.38
652.523	25564.31
652.875	25472.79
653.227	25381.27
653.578	25564.54
653.93	25457.88
654.282	25353.92
654.633	25357.99
654.985	25514.15
655.337	25432.79
655.688	25317.54
656.039	25425.11
656.391	25248.39
656.742	25278.22
657.094	25323.64
657.445	25237.99
657.796	25284.32
658.147	25215.17
658.498	25355.05
658.849	25432.79
659.2	25180.59
659.551	25196.19
659.902	25349.4
660.253	25220.14
660.604	25296.98
660.955	25212.91
661.306	25243.64
661.656	25241.16
662.007	25268.95
662.358	25199.13
662.708	25329.97
663.059	25242.29
663.409	25114.83
663.76	25415.17
664.11	25359.12
664.461	25441.83
664.811	25350.31
665.161	25243.42
665.511	25147.38
665.862	25241.61
666.212	25381.72
666.562	25360.7
666.912	25293.81
667.262	25182.18
667.612	25267.6
667.962	25214.72
668.312	25190.54
668.662	25266.02
669.011	25234.38
669.361	25238.22
669.711	25297.65
670.06	25193.93
670.41	25248.62
670.76	25134.49
671.109	25189.86
671.459	25141.95
671.808	25122.52
672.157	25106.7
672.507	25040.71
672.856	25003.42
673.205	25121.16
673.554	25160.03
673.904	25128.17
674.253	25174.27
674.602	25052.46
674.951	24726.14
675.3	24575.41
675.649	25006.14
675.998	24987.83
676.346	25064.67
676.695	25156.41
677.044	24927.27
677.393	24911.68
677.741	25009.98
678.09	24915.29
678.438	24832.13
678.787	24923.43
679.135	24877.78
679.484	24798.91
679.832	24840.72
680.181	24778.8
680.529	24792.58
680.877	24660.38
681.225	24713.26
681.573	24866.93
681.922	24763.66
682.27	24578.58
682.618	24732.02
682.966	24635.98
683.314	24556.2
683.661	24579.93
684.009	24406.6
684.357	24423.78
684.705	24340.84
685.053	24322.09
685.4	24229.66
685.748	24134.52
686.095	24127.97
686.443	23940.63
686.79	24029.44
687.138	24150.34
687.485	24038.93
687.832	23906.96
688.18	23870.35
688.527	23759.16
688.874	23796.68
689.221	23728.66
689.568	23643.23
689.915	23500.64
690.262	23561.88
690.609	23525.27
690.956	23376.57
691.303	23408.66
691.65	23245.5
691.997	23275.56
692.344	23137.71
692.69	23106.53
693.037	23101.78
693.383	22845.06
693.73	22953.08
694.077	22886.64
694.423	22906.08
694.769	22745.63
695.116	22619.53
695.462	22666.76
695.808	22488.01
696.155	22551.51
696.501	22268.13
696.847	22356.49
697.193	22116.04
697.539	22193.55
697.885	22057.51
698.231	21996.95
698.577	21872.89
698.923	22023.16
699.269	21855.48
699.614	21742.27
699.96	21702.49
700.306	21655.04
700.651	21467.02
700.997	21440.81
701.342	21318.78
701.688	21342.5
702.033	21288.72
702.379	21326.69
702.724	21185.67
703.069	21213.92
703.415	21011.67
703.76	20874.49
704.105	20975.06
704.45	20921.72
704.795	20736.64
705.14	20703.88
705.485	20777.32
705.83	20659.36
706.175	20695.06
706.52	20659.13
706.865	20518.57
707.209	20418.23
707.554	20397.67
707.899	20423.43
708.243	20317.9
708.588	20261.85
708.932	20163.33
709.277	20121.52
709.621	19999.49
709.966	19937.12
710.31	20024.57
710.654	19820.51
710.998	19905.71
711.342	19836.78
711.687	19744.58
712.031	19813.5
712.375	19713.17
712.719	19648.54
713.063	19694.41
713.407	19619.61
713.75	19515.89
714.094	19439.95
714.438	19479.28
714.782	19504.13
715.125	19365.83
715.469	19416
715.812	19375.55
716.156	19255.1
716.499	19298.49
716.843	19353.63
717.186	19141.66
717.53	19295.78
717.873	19264.59
718.216	19264.37
718.559	19162.45
718.902	18864.6
719.246	19029.8
719.589	18978.72
719.932	18901.21
720.275	18950.48
720.617	19006.07
720.96	18972.85
721.303	18982.57
721.646	19081.77
721.989	18824.38
722.331	18957.48
722.674	18843.59
723.016	18885.17
723.359	18849.69
723.701	18823.25
724.044	18756.81
724.386	18624.16
724.729	18699.41
725.071	18725.62
725.413	18656.92
725.755	18597.49
726.097	18658.28
726.439	18495.57
726.782	18457.61
727.124	18634.55
727.465	18631.61
727.807	18454.67
728.149	18516.14
728.491	18507.55
728.833	18466.2
729.175	18528.79
729.516	18456.03
729.858	18374.22
730.199	18431.39
730.541	18497.61
730.882	18504.84
731.224	18433.2
731.565	18303.49
731.906	18368.12
732.248	18473.43
732.589	18322.47
732.93	18409.93
733.271	18414.45
733.612	18294.9
733.953	18303.49
734.294	18150.05
734.635	18287.44
734.976	18311.62
735.317	18311.4
735.658	18219.87
735.999	18282.92
736.339	18314.11
736.68	18363.6
737.021	18382.58
737.361	18261.68
737.702	18335.35
738.042	18229.82
738.383	18369.93
738.723	18371.28
739.063	18244.51
739.404	18398.17
739.744	18232.98
740.084	18333.32
740.424	18420.77
740.764	18267.56
741.104	18395.24
741.444	18293.32
741.784	18309.82
742.124	18384.62
742.464	18379.42
742.804	18326.99
743.143	18307.33
743.483	18402.69
743.823	18344.62
744.162	18303.49
744.502	18449.25
744.841	18365.86
745.181	18484.5
745.52	18408.8
745.86	18489.02
746.199	18408.57
746.538	18388.68
746.877	18578.06
747.216	18624.38
747.556	18521.11
747.895	18578.73
748.234	18577.15
748.573	18648.79
748.911	18646.98
749.25	18579.86
749.589	18604.27
749.928	18637.26
750.267	18717.04
750.605	18689.92
750.944	18660.31
751.283	18714.78
751.621	18871.83
751.96	18711.61
752.298	18735.57
752.636	18777.83
752.975	18886.75
753.313	18822.12
753.651	18924.94
753.989	18834.32
754.327	18943.92
754.666	18806.3
755.004	18987.31
755.342	18968.1
755.679	18970.81
756.017	19020.98
756.355	19084.94
756.693	19035.67
757.031	19159.74
757.368	18986.63
757.706	19120.42
758.044	19095.11
758.381	19115.67
758.719	19023.02
759.056	19134.43
759.394	19178.72
759.731	19000.42
760.068	19042.9
760.405	19067.99
760.743	18983.02
761.08	19124.03
761.417	18932.62
761.754	19013.75
762.091	19057.14
762.428	18891.27
762.765	18983.92
763.102	18945.28
763.438	18924.71
763.775	18879.07
764.112	18915.22
764.449	18943.47
764.785	18878.61
765.122	18813.08
765.458	18685.85
765.795	18730.37
766.131	18838.39
766.467	18720.65
766.804	18768.79
767.14	18628
767.476	18638.62
767.812	18617.15
768.148	18649.47
768.485	18568.57
768.821	18438.4
769.157	18523.59
769.492	18526.31
769.828	18455.12
770.164	18207.22
770.5	18198.41
770.836	18244.73
771.171	18185.52
771.507	18050.61
771.842	17995.93
772.178	17983.95
772.513	18122.25
772.849	17912.54
773.184	17976.26
773.519	17823.95
773.855	17751.19
774.19	17767.46
774.525	17581.92
774.86	17714.35
775.195	17591.87
775.53	17426.45
775.865	17436.17
776.2	17428.71
776.535	17312.1
776.87	17308.94
777.205	17183.07
777.539	17148.26
777.874	17180.13
778.209	17062.62
778.543	17001.83
778.878	16915.95
779.212	16991.66
779.547	16750.08
779.881	16796.41
780.215	16700.14
780.55	16725.22
780.884	16599.58
781.218	16553.03
781.552	16599.58
781.886	16527.04
782.22	16453.37
782.554	16368.85
782.888	16296.31
783.222	16141.96
783.556	16065.35
783.889	16149.87
784.223	15991.91
784.557	15948.52
784.89	15968.41
785.224	15784.23
785.557	15739.26
785.891	15747.62
786.224	15786.27
786.558	15716.89
786.891	15631.92
787.224	15587.85
787.557	15471.92
787.891	15461.98
788.224	15384.92
788.557	15328.88
788.89	15328.65
789.223	15264.25
789.556	15243
789.888	15161.65
790.221	15112.39
790.554	15052.5
790.887	15053.18
791.219	14910.58
791.552	14891.6
791.884	14861.09
792.217	14883.69
792.549	14801.43
792.882	14697.25
793.214	14703.81
793.546	14583.59
793.879	14508.56
794.211	14442.8
794.543	14506.53
794.875	14330.26
795.207	14476.24
795.539	14377.72
795.871	14280.32
796.203	14243.48
796.535	14130.94
796.867	14120.09
797.198	14040.77
797.53	14073.99
797.862	14000.55
798.193	14016.14
798.525	13869.93
798.856	13952.87
799.188	13842.59
799.519	13783.61
799.85	13574.35
800.182	13674.68
800.513	13750.84
800.844	13562.82
801.175	13659.32
801.506	13592.88
801.837	13544.97
802.168	13496.61
802.499	13476.04
802.83	13339.55
803.161	13328.93
803.491	13419.55
803.822	13318.31
804.153	13262.94
804.483	13126
804.814	13122.61
805.145	13120.12
805.475	13174.36
805.805	13110.63
806.136	13231.76
806.466	13012.78
806.796	12991.54
807.126	12994.47
807.457	12923.52
807.787	12961.48
808.117	12843.52
808.447	12801.71
808.777	12885.55
809.107	12753.58
809.436	12726.23
809.766	12758.55
810.096	12735.5
810.426	12711.32
810.755	12644.88
811.085	12616.86
811.414	12635.84
811.744	12526.69
812.073	12537.76
812.403	12509.74
812.732	12445.11
813.061	12487.37
813.39	12363.76
813.719	12340.93
814.049	12439.01
814.378	12366.92
814.707	12342.74
815.036	12321.05
815.365	12278.34
815.693	12222.07
816.022	12156.76
816.351	12097.1
816.68	12094.39
817.008	12113.82
817.337	11922.19
817.665	12002.18
817.994	12030.43
818.322	12090.09
818.651	11977.33
818.979	11908.85
819.307	12003.09
819.636	11851.68
819.964	11861.85
820.292	11876.76
820.62	11853.04
820.948	11878.12
821.276	11927.61
821.604	11876.09
821.932	11959.7
822.259	11820.04
822.587	11890.1
822.915	11866.59
823.243	11875.86
823.57	11841.74
823.898	11881.28
824.225	11783.43
824.553	11838.12
824.88	11853.94
825.207	11881.28
825.535	11860.95
825.862	11854.39
826.189	11839.02
826.516	11958.57
826.843	11875.63
827.17	11877.44
827.497	11860.95
827.824	11823.21
828.151	11940.27
828.478	11896.2
828.805	11933.49
829.131	11815.75
829.458	11847.16
829.785	11795.18
830.111	11841.28
830.438	11929.19
830.764	11916.76
831.09	11869.08
831.417	11785.47
831.743	11842.19
832.069	11824.79
832.395	11824.79
832.722	11789.53
833.048	11754.51
833.374	11851.45
833.7	11741.85
834.026	11815.07
834.351	11796.54
834.677	11804.22
835.003	11804.22
835.329	11819.14
835.654	11756.32
835.98	11680.84
836.306	11705.02
836.631	11771.91
836.956	11785.24
837.282	11730.78
837.607	11666.6
837.932	11677.67
838.258	11631.35
838.583	11679.93
838.908	11664.11
839.233	11603.55
839.558	11570.56
839.883	11581.63
840.208	11557.22
840.533	11615.3
840.858	11555.87
841.182	11482.42
841.507	11521.07
841.832	11444.91
842.156	11389.32
842.481	11452.59
842.805	11451.24
843.13	11349.55
843.454	11325.37
843.778	11371.47
844.103	11316.55
844.427	11290.79
844.751	11289.43
845.075	11260.06
845.399	11218.48
845.723	11180.29
846.047	11138.03
846.371	11089.89
846.695	11020.52
847.019	10980.97
847.343	10929.9
847.666	10864.59
847.99	10867.3
848.313	10847.64
848.637	10759.51
848.96	10783.91
849.284	10745.72
849.607	10705.72
849.931	10725.38
850.254	10653.52
850.577	10547.53
850.9	10542.56
851.223	10520.64
851.546	10415.56
851.869	10412.85
852.192	10407.2
852.515	10318.16
852.838	10288.11
853.161	10336.24
853.483	10227.09
853.806	10169.24
854.129	10236.58
854.451	10136.02
854.774	10102.12
855.096	10084.72
855.419	10044.72
855.741	9997.94
856.063	9999.75
856.385	9920.21
856.708	9887.44
857.03	9870.49
857.352	9859.87
857.674	9809.7
857.996	9805.86
858.318	9765.41
858.64	9769.02
858.961	9723.37
859.283	9683.6
859.605	9563.6
859.926	9642.47
860.248	9575.13
860.57	9475.47
860.891	9555.24
861.212	9550.05
861.534	9507.56
861.855	9408.13
862.176	9466.66
862.498	9468.92
862.819	9446.55
863.14	9400.67
863.461	9430.73
863.782	9403.16
864.103	9395.25
864.424	9331.29
864.745	9365.42
865.065	9295.36
865.386	9196.38
865.707	9300.79
866.027	9249.49
866.348	9241.13
866.668	9180.34
866.989	9225.76
867.309	9215.37
867.63	9133.56
867.95	9186.89
868.27	9145.08
868.59	9202.26
868.91	9092.66
869.23	9108.93
869.55	9085.88
869.87	9005.65
870.19	9044.52
870.51	9022.15
870.83	9037.74
871.15	9006.56
871.469	8978.99
871.789	8981.02
872.109	9011.08
872.428	8930.4
872.748	8958.65
873.067	8938.99
873.386	8895.83
873.706	8906.9
874.025	8862.15
874.344	8875.04
874.663	8868.93
874.982	8824.41
875.301	8874.81
875.62	8763.85
875.939	8765.43
876.258	8757.07
876.577	8759.11
876.896	8722.5
877.214	8705.77
877.533	8791.42
877.852	8729.05
878.17	8729.5
878.489	8716.17
878.807	8707.58
879.125	8651.31
879.444	8684.98
879.762	8650.63
880.08	8697.19
880.398	8604.53
880.716	8593.23
881.034	8592.1
881.352	8618.32
881.67	8626
881.988	8588.71
882.306	8525.44
882.624	8535.38
882.941	8467.14
883.259	8438.21
883.577	8417.87
883.894	8529.73
884.212	8465.78
884.529	8434.14
884.846	8362.73
885.164	8310.3
885.481	8317.99
885.798	8368.61
886.115	8288.84
886.432	8299.23
886.75	8315.95
887.067	8252
887.383	8213.81
887.7	8253.58
888.017	8266.01
888.334	8266.92
888.651	8174.71
888.967	8138.56
889.284	8115.51
889.6	8128.16
889.917	8028.96
890.233	8079.58
890.55	8043.87
890.866	8010.65
891.182	7982.86
891.498	7943.99
891.815	7971.33
892.131	7939.01
892.447	7917.77
892.763	7951.22
893.079	7913.48
893.395	7847.49
893.71	7789.19
894.026	7795.52
894.342	7816.08
894.657	7698.57
894.973	7705.35
895.289	7732.24
895.604	7675.29
895.92	7611.79
896.235	7638.46
896.55	7654.28
896.865	7594.84
897.181	7578.57
897.496	7543.77
897.811	7448.41
898.126	7514.62
898.441	7416.09
898.756	7416.54
899.071	7407.95
899.386	7412.93
899.7	7306.04
900.015	7319.6
900.33	7262.65
900.644	7255.42
900.959	7292.25
901.273	7258.58
901.588	7216.1
901.902	7203.89
902.216	7141.52
902.531	7087.74
902.845	7087.51
903.159	7039.83
903.473	6991.92
903.787	7060.62
904.101	6977.01
904.415	7045.25
904.729	6987.63
905.042	6916.44
905.356	6883
905.67	6883.9
905.984	6911.24
906.297	6908.99
906.611	6753.28
906.924	6765.49
907.237	6758.25
907.551	6774.3
907.864	6781.3
908.177	6765.26
908.491	6688.88
908.804	6680.06
909.117	6604.36
909.43	6527.98
909.743	6579.28
910.056	6565.04
910.368	6544.7
910.681	6460.41
910.994	6460.64
911.307	6433.07
911.619	6406.63
911.932	6464.7
912.244	6339.96
912.557	6344.71
912.869	6339.73
913.181	6298.61
913.494	6309.68
913.806	6309.45
914.118	6192.39
914.43	6205.95
914.742	6193.07
915.054	6073.53
915.366	6169.12
915.678	6091.38
915.99	6076.46
916.302	6030.36
916.613	5994.21
916.925	6021.78
917.236	5992.4
917.548	5914.21
917.859	5961.67
918.171	5880.31
918.482	5878.5
918.794	5887.09
919.105	5832.86
919.416	5798.51
919.727	5797.83
920.038	5821.33
920.349	5771.61
920.66	5759.64
920.971	5740.65
921.282	5688
921.593	5705.17
921.903	5642.13
922.214	5641.45
922.525	5610.94
922.835	5575.46
923.146	5501.11
923.456	5545.86
923.767	5525.07
924.077	5497.04
924.387	5468.57
924.697	5432.87
925.008	5460.44
925.318	5426.54
925.628	5397.61
925.938	5437.39
926.248	5285.07
926.558	5295.69
926.867	5320.55
927.177	5267.67
927.487	5283.94
927.796	5208.46
928.106	5224.51
928.416	5209.82
928.725	5158.07
929.034	5139.54
929.344	5122.59
929.653	5133.44
929.962	5076.94
930.271	5027.45
930.581	5065.64
930.89	5031.97
931.199	5025.64
931.508	4942.94
931.817	4947.91
932.125	4927.57
932.434	4955.59
932.743	4895.93
933.051	4884.18
933.36	4889.38
933.669	4882.15
933.977	4837.85
934.286	4822.26
934.594	4784.75
934.902	4741.13
935.21	4741.36
935.519	4755.14
935.827	4696.16
936.135	4701.13
936.443	4659.33
936.751	4719.89
937.059	4587.01
937.367	4618.88
937.674	4605.09
937.982	4564.64
938.29	4588.82
938.597	4566.9
938.905	4498.65
939.213	4504.98
939.52	4457.98
939.827	4493.68
940.135	4460.01
940.442	4436.96
940.749	4407.58
941.056	4390.41
941.363	4392.22
941.67	4391.09
941.977	4316.96
942.284	4321.71
942.591	4280.13
942.898	4280.81
943.205	4274.93
943.511	4293.23
943.818	4258.89
944.125	4197.42
944.431	4205.33
944.738	4192.45
945.044	4171.2
945.35	4182.05
945.657	4113.13
945.963	4116.97
946.269	4138.44
946.575	4130.75
946.881	4061.38
947.187	4078.55
947.493	4029.29
947.799	3976.63
948.105	3982.06
948.41	3995.39
948.716	3987.71
949.022	3997.42
949.327	3947.48
949.633	3923.75
949.938	3899.12
950.244	3872.68
950.549	3831.78
950.854	3842.62
951.16	3846.69
951.465	3814.38
951.77	3816.64
952.075	3771.67
952.38	3773.93
952.685	3747.94
952.99	3782.97
953.294	3755.17
953.599	3750.2
953.904	3688.5
954.209	3632.46
954.513	3654.61
954.818	3659.13
955.122	3650.31
955.426	3624.78
955.731	3632.69
956.035	3583.42
956.339	3597.66
956.643	3589.98
956.948	3553.37
957.252	3538
957.556	3516.98
957.86	3493.26
958.163	3511.79
958.467	3469.3
958.771	3486.7
959.075	3451.22
959.378	3411.68
959.682	3455.97
959.985	3410.09
960.289	3356.08
960.592	3362.86
960.896	3387.04
961.199	3338.68
961.502	3341.17
961.805	3327.38
962.108	3305.01
962.411	3318.8
962.714	3273.83
963.017	3268.4
963.32	3250.55
963.623	3272.24
963.926	3261.17
964.228	3251.91
964.531	3196.99
964.833	3216.88
965.136	3204.9
965.438	3179.14
965.741	3164.9
966.043	3165.13
966.345	3103.89
966.648	3149.54
966.95	3135.07
967.252	3097.11
967.554	3073.61
967.856	3047.17
968.158	3029.76
968.46	3072.25
968.761	3049.88
969.063	3013.72
969.365	3011.01
969.666	2994.96
969.968	2945.25
970.269	2952.7
970.571	2937.11
970.872	2937.11
971.174	2908.86
971.475	2934.4
971.776	2886.94
972.077	2893.05
972.378	2852.14
972.679	2890.56
972.98	2840.62
973.281	2831.8
973.582	2799.49
973.883	2820.5
974.183	2806.95
974.484	2804.91
974.785	2723.33
975.085	2750.45
975.386	2768.98
975.686	2722.65
975.986	2718.13
976.287	2706.84
976.587	2708.64
976.887	2714.29
977.187	2680.4
977.487	2720.62
977.787	2641.98
978.087	2657.35
978.387	2666.84
978.687	2633.84
978.987	2615.76
979.286	2594.97
979.586	2618.93
979.885	2569.66
980.185	2628.65
980.484	2570.79
980.784	2557.01
981.083	2590.91
981.382	2570.12
981.682	2523.56
981.981	2523.79
982.28	2517.46
982.579	2503.45
982.878	2458.25
983.177	2494.64
983.475	2458.25
983.774	2436.56
984.073	2446.5
984.372	2444.92
984.67	2428.2
984.969	2406.96
985.267	2412.38
985.566	2391.59
985.864	2387.07
986.162	2389.33
986.461	2360.4
986.759	2357.47
987.057	2311.82
987.355	2352.27
987.653	2318.15
987.951	2312.72
988.249	2303.46
988.547	2316.79
988.844	2273.85
989.142	2298.71
989.44	2237.02
989.737	2254.87
990.035	2274.98
990.332	2191.82
990.63	2244.93
990.927	2260.75
991.224	2275.66
991.521	2201.09
991.819	2214.42
992.116	2206.28
992.413	2194.98
992.71	2182.78
993.006	2201.31
993.303	2183.46
993.6	2118.83
993.897	2108.21
994.193	2105.5
994.49	2126.29
994.787	2100.07
995.083	2093.74
995.379	2078.38
995.676	2064.59
995.972	2043.35
996.268	2028.66
996.565	2057.36
996.861	2016.46
997.157	2040.86
997.453	2005.39
997.749	2014.42
998.044	2020.07
998.34	1993.63
998.636	1967.87
998.932	1962
999.227	1978.04
999.523	1940.08
999.818	1978.72
1000.114	1940.75
1000.409	1893.52
1000.704	1916.8
1001	1901.43
1001.295	1908.89
1001.59	1883.13
1001.885	1856.46
1002.18	1878.83
1002.475	1853.98
1002.77	1852.39
1003.065	1826.63
1003.359	1804.71
1003.654	1813.98
1003.949	1832.06
1004.243	1793.41
1004.538	1799.97
1004.832	1782.79
1005.127	1764.71
1005.421	1763.13
1005.715	1755.45
1006.009	1759.06
1006.304	1743.47
1006.598	1736.47
1006.892	1721.78
1007.186	1707.77
1007.48	1703.25
1007.773	1674.77
1008.067	1661.44
1008.361	1646.52
1008.655	1655.11
1008.948	1666.86
1009.242	1676.58
1009.535	1601.33
1009.829	1631.84
1010.122	1627.77
1010.415	1631.84
1010.708	1595.68
1011.001	1562.68
1011.295	1590.71
1011.588	1582.35
1011.881	1562.91
1012.173	1567.88
1012.466	1567.88
1012.759	1538.5
1013.052	1526.08
1013.344	1518.62
1013.637	1535.12
1013.93	1515.91
1014.222	1490.37
1014.514	1480.2
1014.807	1502.35
1015.099	1459.41
1015.391	1470.48
1015.683	1470.26
1015.976	1449.24
1016.268	1435
1016.56	1400.88
1016.851	1407.89
1017.143	1429.81
1017.435	1437.04
1017.727	1414.89
1018.018	1381.22
1018.31	1387.55
1018.602	1389.36
1018.893	1390.03
1019.185	1363.82
1019.476	1342.8
1019.767	1347.1
1020.058	1306.19
1020.35	1341.45
1020.641	1312.97
1020.932	1337.38
1021.223	1335.8
1021.514	1316.59
1021.804	1278.62
1022.095	1267.55
1022.386	1265.52
1022.677	1271.39
1022.967	1286.31
1023.258	1265.07
1023.548	1228.91
1023.839	1239.98
1024.129	1254.67
1024.419	1265.97
1024.709	1220.77
1025	1192.75
1025.29	1223.03
1025.58	1181.45
1025.87	1181.68
1026.16	1157.72
1026.449	1182.81
1026.739	1173.09
1027.029	1156.59
1027.319	1148.23
1027.608	1145.29
1027.898	1113.43
1028.187	1115.69
1028.477	1098.06
1028.766	1106.2
1029.055	1102.58
1029.344	1097.84
1029.634	1092.19
1029.923	1095.35
1030.212	1106.43
1030.501	1082.7
1030.79	1062.81
1031.078	1081.12
1031.367	1070.49
1031.656	1042.02
1031.945	1041.12
1032.233	1037.73
1032.522	1007.45
1032.81	1047.44
1033.099	1024.85
1033.387	999.31
1033.675	1010.16
1033.963	991.63
1034.251	1020.1
1034.54	964.28
1034.828	970.84
1035.116	964.28
1035.403	987.78
1035.691	969.03
1035.979	990.5
1036.267	967.45
1036.554	937.16
1036.842	949.82
1037.129	952.08
1037.417	950.27
1037.704	925.87
1037.992	948.01
1038.279	890.84
1038.566	904.85
1038.853	904.85
1039.14	904.85
