Data from 350_FLMS001491_008.txt Node
Date: Thu Apr 19 15:44:42 BST 2018
User: hsy
Spectrometer: FLMS00149
Trigger mode: 0
Integration Time (sec): 1.000000E-2
Scans to average: 10
Electric dark correction enabled: true
Nonlinearity correction enabled: false
Boxcar width: 0
XAxis mode: Wavelengths
Number of Pixels in Spectrum: 2048
>>>>>Begin Spectral Data<<<<<
341.393	0.72
341.776	0.72
342.16	0.72
342.543	-69.11
342.927	-57.58
343.31	-71.37
343.693	-71.82
344.077	-74.31
344.46	-75.21
344.843	-39.05
345.226	-45.15
345.61	-52.84
345.993	1.17
346.376	4.56
346.759	-6.29
347.142	22.19
347.525	56.76
347.908	64
348.291	72.81
348.674	88.85
349.057	125.69
349.44	112.58
349.823	137.89
350.206	177.44
350.588	205.01
350.971	231.45
351.354	258.11
351.737	252.24
352.119	271
352.502	273.26
352.884	285.23
353.267	290.2
353.65	320.03
354.032	315.51
354.414	346.02
354.797	346.47
355.179	347.83
355.562	342.63
355.944	339.47
356.326	362.52
356.709	371.78
357.091	375.85
357.473	378.34
357.855	381.73
358.238	384.21
358.62	375.17
359.002	383.31
359.384	384.89
359.766	348.96
360.148	366.13
360.53	370.65
360.912	380.6
361.294	356.87
361.676	362.07
362.057	364.78
362.439	373.14
362.821	352.58
363.203	379.24
363.584	366.13
363.966	352.12
364.348	358
364.729	371.56
365.111	376.08
365.493	381.95
365.874	364.55
366.256	360.48
366.637	359.81
367.019	361.39
367.4	340.82
367.781	354.38
368.163	361.39
368.544	356.87
368.925	380.6
369.306	373.59
369.688	376.53
370.069	370.88
370.45	375.4
370.831	363.2
371.212	371.33
371.593	389.86
371.974	376.53
372.355	377.21
372.736	369.98
373.117	382.18
373.498	371.78
373.879	371.33
374.26	365.23
374.641	381.5
375.021	369.52
375.402	382.63
375.783	396.42
376.163	393.48
376.544	397.55
376.925	402.74
377.305	398.9
377.686	411.56
378.066	394.61
378.447	407.72
378.827	398
379.208	391.9
379.588	412.46
379.968	389.86
380.349	407.72
380.729	399.35
381.109	423.31
381.489	424.44
381.87	421.5
382.25	420.14
382.63	418.11
383.01	428.96
383.39	430.54
383.77	419.47
384.15	426.47
384.53	436.42
384.91	443.19
385.29	445
385.67	452.23
386.049	472.57
386.429	437.32
386.809	447.49
387.189	468.5
387.568	472.12
387.948	430.31
388.328	445.91
388.707	455.4
389.087	461.73
389.466	468.96
389.846	472.57
390.225	486.58
390.605	479.35
390.984	496.07
391.363	476.87
391.743	502.4
392.122	502.85
392.501	502.63
392.881	503.76
393.26	504.89
393.639	524.1
394.018	515.06
394.397	520.03
394.776	513.7
395.155	522.97
395.534	529.97
395.913	523.64
396.292	546.24
396.671	535.4
397.05	535.4
397.429	550.99
397.808	545.34
398.186	553.02
398.565	553.93
398.944	552.57
399.323	568.84
399.701	584.89
400.08	571.55
400.458	579.24
400.837	576.98
401.215	585.11
401.594	583.53
401.972	586.24
402.351	587.37
402.729	583.98
403.107	598.22
403.486	596.64
403.864	599.57
404.242	606.35
404.62	622.85
404.999	619.46
405.377	622.62
405.755	635.51
406.133	636.64
406.511	647.93
406.889	665.79
407.267	650.19
407.645	670.99
408.023	661.72
408.401	688.61
408.779	684.54
409.156	676.63
409.534	723.87
409.912	706.01
410.29	711.44
410.667	738.78
411.045	726.12
411.422	729.51
411.8	749.4
412.178	740.81
412.555	787.14
412.933	785.78
413.31	781.26
413.687	770.87
414.065	805.67
414.442	804.77
414.819	816.07
415.197	840.02
415.574	838.21
415.951	821.94
416.328	849.51
416.705	826.46
417.082	859
417.46	875.27
417.837	859.91
418.214	888.61
418.591	860.81
418.967	842.73
419.344	854.26
419.721	899.23
420.098	901.26
420.475	915.72
420.852	911.2
421.228	888.61
421.605	923.86
421.982	926.35
422.358	925.89
422.735	960.24
423.111	940.81
423.488	970.19
423.864	956.63
424.241	969.28
424.617	987.81
424.994	973.8
425.37	1006.34
425.746	1027.13
426.123	1009.51
426.499	1030.52
426.875	1034.82
427.251	1037.53
427.627	1075.49
428.003	1064.2
428.379	1104.65
428.756	1108.49
429.132	1101.93
429.507	1105.32
429.883	1130.63
430.259	1140.8
430.635	1177.86
431.011	1180.12
431.387	1188.94
431.763	1211.08
432.138	1216.06
432.514	1230.07
432.89	1237.75
433.265	1263.06
433.641	1277.07
434.016	1295.15
434.392	1271.2
434.767	1307.13
435.143	1346.67
435.518	1299.22
435.894	1363.62
436.269	1347.58
436.644	1374.47
437.02	1387.35
437.395	1395.26
437.77	1397.07
438.145	1438.42
438.52	1431.19
438.895	1441.81
439.271	1447.69
439.646	1478.42
440.021	1504.64
440.395	1469.83
440.77	1465.54
441.145	1487.23
441.52	1502.15
441.895	1519.32
442.27	1543.28
442.645	1533.79
443.019	1546.22
443.394	1586.67
443.769	1557.74
444.143	1563.62
444.518	1595.71
444.892	1577.4
445.267	1616.72
445.641	1592.77
446.016	1633.22
446.39	1622.82
446.764	1646.1
447.139	1624.18
447.513	1685.42
447.887	1720.22
448.262	1677.96
448.636	1684.74
449.01	1694.01
449.384	1727.45
449.758	1689.94
450.132	1719.09
450.506	1774.23
450.88	1767.45
451.254	1797.06
451.628	1810.84
452.002	1805.87
452.376	1816.94
452.75	1881.35
453.123	1852.65
453.497	1916.38
453.871	1917.73
454.244	1963.83
454.618	1955.25
454.992	2007.9
455.365	2008.8
455.739	2028.01
456.112	2067.56
456.486	2058.07
456.859	2091.74
457.232	2133.55
457.606	2170.38
457.979	2161.34
458.352	2231.4
458.725	2222.36
459.099	2245.86
459.472	2265.75
459.845	2322.47
460.218	2334.22
460.591	2330.6
460.964	2360.88
461.337	2388.23
461.71	2403.82
462.083	2473.65
462.456	2496.02
462.829	2513.65
463.201	2583.48
463.574	2509.35
463.947	2576.92
464.32	2636.58
464.692	2638.84
465.065	2669.12
465.438	2693.98
465.81	2756.13
466.183	2769.46
466.555	2807.2
466.928	2808.78
467.3	2802.45
467.672	2888.78
468.045	2930.59
468.417	2935.11
468.789	2984.82
469.161	2996.35
469.534	3051.26
469.906	3109.79
470.278	3123.58
470.65	3162.45
471.022	3197.47
471.394	3247.64
471.766	3279.96
472.138	3315.89
472.51	3383.91
472.882	3427.3
473.253	3470.46
473.625	3513.85
473.997	3538.93
474.369	3643.56
474.74	3657.35
475.112	3707.52
475.484	3789.55
475.855	3802.88
476.227	3838.13
476.598	3991.35
476.97	4026.15
477.341	4084.91
477.713	4146.15
478.084	4178.92
478.455	4252.59
478.827	4302.53
479.198	4477.44
479.569	4426.14
479.94	4580.94
480.311	4627.04
480.682	4717.66
481.053	4867.49
481.424	4874.26
481.795	4923.75
482.166	5003.07
482.537	5085.78
482.908	5180.92
483.279	5264.76
483.65	5374.14
484.021	5464.98
484.391	5523.29
484.762	5594.02
485.133	5642.61
485.503	5778.2
485.874	5925.76
486.244	5960.34
486.615	6077.4
486.985	6186.77
487.356	6257.05
487.726	6339.08
488.097	6490.04
488.467	6490.04
488.837	6616.59
489.207	6707.89
489.578	6819.52
489.948	6943.81
490.318	7020.65
490.688	7085.28
491.058	7223.13
491.428	7342.45
491.798	7351.94
492.168	7554.19
492.538	7576.57
492.908	7708.77
493.278	7819.27
493.648	7854.98
494.017	7980.17
494.387	8085.03
494.757	8154.63
495.126	8225.36
495.496	8322.54
495.866	8404.57
496.235	8540.61
496.605	8574.73
496.974	8557.33
497.344	8757.1
497.713	8820.83
498.082	8887.72
498.452	8956.87
498.821	9030.99
499.19	9083.42
499.559	9280.48
499.928	9285.9
500.298	9329.51
500.667	9477.99
501.036	9480.92
501.405	9536.51
501.774	9605.89
502.143	9717.3
502.512	9797.98
502.88	9865.32
503.249	9967.69
503.618	10075.26
503.987	10155.93
504.356	10223.5
504.724	10286.55
505.093	10334.91
505.462	10416.27
505.83	10481.12
506.199	10590.72
506.567	10759.31
506.936	10790.95
507.304	10855.12
507.672	10968.57
508.041	10963.6
508.409	11053.31
508.777	11213.08
509.145	11270.71
509.514	11381.66
509.882	11410.59
510.25	11467.99
510.618	11606.52
510.986	11621.21
511.354	11776.23
511.722	11833.4
512.09	11960.63
512.458	11950.69
512.826	12170.12
513.193	12155.43
513.561	12223
513.929	12406.95
514.297	12486.72
514.664	12695.08
515.032	12644.23
515.4	12821.17
515.767	12875.41
516.135	12989.31
516.502	12842.19
516.869	13163.76
517.237	13232.69
517.604	13101.17
517.972	13416.86
518.339	13552.68
518.706	13540.48
519.073	13631.55
519.44	13777.99
519.808	13945.66
520.175	13941.6
520.542	14074.93
520.909	14213.68
521.276	14245.32
521.643	14464.75
522.009	14566.67
522.376	14641.69
522.743	14750.84
523.11	14960.33
523.477	15069.25
523.843	15181.79
524.21	15309.02
524.577	15554.89
524.943	15542.46
525.31	15655.68
525.676	15783.36
526.043	16105.16
526.409	16084.82
526.776	16257.02
527.142	16338.37
527.508	16477.35
527.874	16539.27
528.241	16685.03
528.607	16719.83
528.973	16936.32
529.339	16940.39
529.705	17254.28
530.071	17378.34
530.437	17375.18
530.803	17573.14
531.169	17606.59
531.535	17604.33
531.901	17775.39
532.267	17801.61
532.632	18030.3
532.998	18074.82
533.364	18193.24
533.73	18249.51
534.095	18401.59
534.461	18416.73
534.826	18477.52
535.192	18642.49
535.557	18757.97
535.923	18724.07
536.288	18825.54
536.653	18856.5
537.019	18946.44
537.384	19090.39
537.749	19124.96
538.114	19054.68
538.479	19179.88
538.845	19267.33
539.21	19252.19
539.575	19356.14
539.94	19466.2
540.305	19588.68
540.67	19531.28
541.034	19674.1
541.399	19618.06
541.764	19707.32
542.129	19790.93
542.494	19816.47
542.858	19892.4
543.223	19982.12
543.587	19992.06
543.952	20042
544.316	20074.77
544.681	20160.64
545.045	20324.71
545.41	20291.71
545.774	20334.65
546.138	20368.32
546.503	20447.19
546.867	20414.19
547.231	20624.36
547.595	20652.83
547.959	20764.02
548.324	20809.44
548.688	20951.81
549.052	20988.64
549.416	20982.32
549.779	21023.22
550.143	21092.37
550.507	21140.96
550.871	21175.98
551.235	21183.89
551.599	21427.28
551.962	21408.52
552.326	21650.77
552.689	21601.06
553.053	21444.9
553.417	21738.91
553.78	21839.69
554.143	21892.8
554.507	21860.48
554.87	22022.74
555.234	22192.45
555.597	21943.65
555.96	22246.46
556.323	22448.72
556.686	22326.23
557.05	22530.75
557.413	22536.4
557.776	22463.41
558.139	22780.46
558.502	22865.2
558.865	22909.04
559.228	23115.37
559.59	23096.84
559.953	23183.16
560.316	23555.36
560.679	23434.45
561.041	23598.52
561.404	23634
561.767	23815.69
562.129	23732.53
562.492	24038.51
562.854	24073.76
563.217	24154.66
563.579	24302.45
563.941	24497.25
564.304	24572.28
564.666	24839.16
565.028	24610.69
565.39	24921.65
565.753	25118.93
566.115	25108.08
566.477	25306.5
566.839	25288.64
567.201	25778.12
567.563	25591.69
567.925	25858.8
568.287	25782.87
568.648	25936.76
569.01	26146.47
569.372	26313.7
569.734	26271.89
570.095	26465.34
570.457	26616.52
570.819	26734.93
571.18	26739.45
571.542	27026
571.903	27019.67
572.265	27167.46
572.626	27263.05
572.987	27290.4
573.349	27450.85
573.71	27605.87
574.071	27694.68
574.432	27844.28
574.794	28038.63
575.155	27873.66
575.516	27956.6
575.877	28119.08
576.238	28221.22
576.599	28270.03
576.96	28362.23
577.32	28430.93
577.681	28566.97
578.042	28626.18
578.403	28616.01
578.763	28766.74
579.124	28711.6
579.485	28948.66
579.845	28956.34
580.206	28810.36
580.566	28901.88
580.927	29007.87
581.287	29053.52
581.648	29065.49
582.008	29250.8
582.368	29174.87
582.728	29231.36
583.089	29134.42
583.449	29008.09
583.809	29154.3
584.169	29239.73
584.529	29104.36
584.889	29270.46
585.249	29172.83
585.609	29164.25
585.969	29319.72
586.329	29159.05
586.688	29349.1
587.048	29187.75
587.408	29211.25
587.768	29159.95
588.127	29252.61
588.487	29177.13
588.846	29420.51
589.206	29038.6
589.565	29153.4
589.925	29222.78
590.284	29117.02
590.643	29225.71
591.003	29287.86
591.362	29351.81
591.721	29168.09
592.08	29403.79
592.44	29374.41
592.799	29193.63
593.158	29232.49
593.517	29225.94
593.876	29317.46
594.235	29217.81
594.593	29303.9
594.952	29346.39
595.311	29194.3
595.67	29294.64
596.029	29288.31
596.387	29384.13
596.746	29516.1
597.104	29329.89
597.463	29297.35
597.822	29390.91
598.18	29284.7
598.538	29234.75
598.897	29644.69
599.255	29290.12
599.613	29670.67
599.972	29424.35
600.33	29456.22
600.688	29389.55
601.046	29405.14
601.404	29724.91
601.762	29502.77
602.12	29645.82
602.478	29547.74
602.836	29712.03
603.194	29458.48
603.552	29592.48
603.91	29490.79
604.268	29571.92
604.625	29527.18
604.983	29752.71
605.341	29483.33
605.698	29607.17
606.056	29833.61
606.413	29706.83
606.771	29883.55
607.128	29736.44
607.485	29832.03
607.843	29907.05
608.2	29907.05
608.557	30042.42
608.914	30039.93
609.272	30109.08
609.629	30159.25
609.986	30238.8
610.343	30201.96
610.7	30331.22
611.057	30413.25
611.414	30396.31
611.771	30439.92
612.127	30375.06
612.484	30467.04
612.841	30462.97
613.198	30551.33
613.554	30295.97
613.911	30667.03
614.267	30707.94
614.624	30563.76
614.98	30646.24
615.337	30772.79
615.693	30789.97
616.05	30824.99
616.406	30892.79
616.762	30738.44
617.118	30827.48
617.475	30928.49
617.831	31032.22
618.187	30989.96
618.543	31069.96
618.899	31242.38
619.255	31083.29
619.611	31142.27
619.967	31173.01
620.323	31350.18
620.678	31117.64
621.034	31170.52
621.39	31191.99
621.746	31309.5
622.101	31583.39
622.457	31221.37
622.812	31525.77
623.168	31511.53
623.523	31470.85
623.879	31403.51
624.234	31394.02
624.589	31451.19
624.945	31412.1
625.3	31528.48
625.655	31358.99
626.01	31481.7
626.365	31495.49
626.72	31429.05
627.075	31459.55
627.43	31354.47
627.785	31238.09
628.14	31340.24
628.495	31403.51
628.85	31420.23
629.205	31495.03
629.559	31320.35
629.914	31311.31
630.269	31322.83
630.623	31173.91
630.978	31135.27
631.332	31271.31
631.687	31320.8
632.041	31268.15
632.396	31345.21
632.75	31212.56
633.104	31315.38
633.459	31183.63
633.813	31023.63
634.167	31073.8
634.521	31062.5
634.875	31053.46
635.229	30968.04
635.583	30819.57
635.937	30837.88
636.291	30745.45
636.645	30641.72
636.999	30660.48
637.352	30666.13
637.706	30480.37
638.06	30686.92
638.413	30523.76
638.767	30387.94
639.121	30463.2
639.474	30363.76
639.828	30455.06
640.181	30533.02
640.534	30371.67
640.888	30260.94
641.241	30124.9
641.594	30111.12
641.947	30195.41
642.301	29953.38
642.654	30195.63
643.007	30093.04
643.36	30163.77
643.713	30010.78
644.066	30136.2
644.419	29959.48
644.771	29561.3
645.124	29220.07
645.477	29261.42
645.83	29202.89
646.182	29359.04
646.535	29214.19
646.888	29370.8
647.24	29199.95
647.593	29284.24
647.945	29222.32
648.298	29233.62
648.65	28908.21
649.002	28701.43
649.355	28618.05
649.707	28333.08
650.059	28420.54
650.411	28774.65
650.763	29053.74
651.115	29473.17
651.467	29428.65
651.819	29269.78
652.171	29293.96
652.523	29284.7
652.875	29373.51
653.227	29136.9
653.578	29327.86
653.93	29207.86
654.282	29128.77
654.633	29081.31
654.985	29067.98
655.337	29174.19
655.688	28990.47
656.039	29077.24
656.391	28928.77
656.742	29004.48
657.094	29058.49
657.445	29129.67
657.796	28967.42
658.147	28898.27
658.498	29079.5
658.849	29041.76
659.2	29013.74
659.551	28943.69
659.902	29105.27
660.253	28828.66
660.604	28961.54
660.955	28890.13
661.306	28974.65
661.656	28940.3
662.007	28880.86
662.358	28965.61
662.708	29020.75
663.059	29042.89
663.409	28842.9
663.76	29008.55
664.11	28979.85
664.461	29124.02
664.811	29077.24
665.161	28971.94
665.511	28879.51
665.862	29051.48
666.212	28978.94
666.562	29015.32
666.912	28911.82
667.262	28789.79
667.612	28924.03
667.962	28874.76
668.312	28968.32
668.662	29090.58
669.011	28989.79
669.361	28843.35
669.711	28891.94
670.06	28852.39
670.41	28814.43
670.76	28778.95
671.109	28859.85
671.459	28786.86
671.808	28793.86
672.157	29062.1
672.507	28791.38
672.856	28741.43
673.205	28864.59
673.554	28868.66
673.904	28634.77
674.253	28968.32
674.602	28658.5
674.951	28378.05
675.3	28230.03
675.649	28800.87
675.998	28575.79
676.346	28823.69
676.695	28892.84
677.044	28584.15
677.393	28576.92
677.741	28683.36
678.09	28556.35
678.438	28489.91
678.787	28562
679.135	28502.12
679.484	28363.36
679.832	28410.59
680.181	28357.94
680.529	28472.29
680.877	28232.75
681.225	28221
681.573	28451.95
681.922	28176.02
682.27	28242.24
682.618	28014.45
682.966	28076.14
683.314	28154.1
683.661	28006.54
684.009	27872.3
684.357	27855.58
684.705	27837.95
685.053	27839.54
685.4	27800.44
685.748	27641.35
686.095	27685.64
686.443	27414.91
686.79	27511.41
687.138	27585.98
687.485	27460.34
687.832	27298.99
688.18	27312.54
688.527	27200.68
688.874	27201.36
689.221	27203.17
689.568	27120.23
689.915	27046.34
690.262	26931.99
690.609	26836.62
690.956	26861.93
691.303	26794.37
691.65	26663.07
691.997	26648.38
692.344	26511.66
692.69	26427.37
693.037	26398.22
693.383	26174.04
693.73	26169.3
694.077	26069.64
694.423	26033.26
694.769	25972.24
695.116	25932.47
695.462	25860.83
695.808	25717.11
696.155	25812.7
696.501	25573.38
696.847	25551.23
697.193	25413.84
697.539	25415.65
697.885	25256.55
698.231	25139.72
698.577	25123.68
698.923	25060.17
699.269	24931.14
699.614	24760.97
699.96	24693.63
700.306	24770.92
700.651	24521.88
700.997	24537.93
701.342	24507.65
701.688	24383.81
702.033	24315.34
702.379	24349.46
702.724	24189.69
703.069	24112.85
703.415	23998.96
703.76	23947.21
704.105	23974.78
704.45	23986.98
704.795	23821.34
705.14	23687.78
705.485	23698.63
705.83	23534.79
706.175	23690.94
706.52	23518.07
706.865	23453.89
707.209	23350.39
707.554	23260.67
707.899	23307.45
708.243	23261.13
708.588	23226.55
708.932	23014.13
709.277	23076.05
709.621	22932.77
709.966	22751.76
710.31	22898.42
710.654	22818.65
710.998	22775.04
711.342	22743.85
711.687	22709.95
712.031	22655.27
712.375	22453.24
712.719	22553.8
713.063	22484.65
713.407	22524.87
713.75	22462.95
714.094	22415.27
714.438	22227.48
714.782	22228.16
715.125	22146.8
715.469	22233.36
715.812	22065.9
716.156	22043.76
716.499	22082.4
716.843	22096.18
717.186	21988.39
717.53	22121.49
717.873	21998.33
718.216	22057.32
718.559	21896.42
718.902	21704.56
719.246	21749.08
719.589	21717.66
719.932	21634.05
720.275	21733.26
720.617	21625.24
720.96	21603.99
721.303	21572.13
721.646	21686.25
721.989	21573.03
722.331	21538.46
722.674	21575.75
723.016	21504.79
723.359	21441.96
723.701	21511.57
724.044	21433.38
724.386	21329.43
724.729	21420.95
725.071	21436.77
725.413	21392.93
725.755	21295.3
726.097	21266.15
726.439	21150.45
726.782	21160.84
727.124	21243.78
727.465	21267.05
727.807	21072.26
728.149	21161.97
728.491	21100.05
728.833	21105.93
729.175	21127.85
729.516	21025.03
729.858	21020.96
730.199	21034.52
730.541	21141.41
730.882	20964.46
731.224	21078.58
731.565	20961.98
731.906	20996.33
732.248	21062.54
732.589	20861.41
732.93	20969.43
733.271	20894.63
733.612	20906.61
733.953	20917.01
734.294	20872.71
734.635	20822.09
734.976	20988.19
735.317	20844.92
735.658	20892.37
735.999	20893.05
736.339	20782.77
736.68	20959.49
737.021	20922.66
737.361	20800.63
737.702	20968.53
738.042	20774.64
738.383	20891.02
738.723	20948.64
739.063	20797.01
739.404	21019.6
739.744	20933.73
740.084	20790.91
740.424	20895.76
740.764	20921.98
741.104	20873.39
741.444	20855.77
741.784	20700.97
742.124	20823.68
742.464	20924.24
742.804	20862.77
743.143	20851.92
743.483	21025.93
743.823	20799.5
744.162	20847.86
744.502	20886.27
744.841	20776.9
745.181	20928.53
745.52	20922.88
745.86	20999.04
746.199	20919.94
746.538	21021.86
746.877	21039.94
747.216	21086.72
747.556	21021.86
747.895	21208.3
748.234	20961.53
748.573	21115.42
748.911	21023.67
749.25	21215.08
749.589	21124.68
749.928	21101.86
750.267	21214.17
750.605	21155.64
750.944	21176.21
751.283	21110.22
751.621	21327.62
751.96	21118.81
752.298	21324.45
752.636	21372.14
752.975	21244.91
753.313	21318.8
753.651	21453.72
753.989	21279.71
754.327	21401.51
754.666	21275.19
755.004	21481.74
755.342	21302.99
755.679	21402.64
756.017	21342.98
756.355	21559.7
756.693	21433.83
757.031	21566.03
757.368	21412.13
757.706	21476.77
758.044	21551.11
758.381	21509.99
758.719	21516.99
759.056	21546.14
759.394	21543.66
759.731	21406.71
760.068	21544.33
760.405	21481.74
760.743	21452.59
761.08	21432.25
761.417	21466.82
761.754	21451.91
762.091	21542.3
762.428	21334.85
762.765	21397.22
763.102	21260.73
763.438	21342.98
763.775	21243.1
764.112	21305.92
764.449	21244.68
764.785	21301.63
765.122	21181.63
765.458	21046.04
765.795	21124.91
766.131	21051.01
766.467	21220.05
766.804	20866.39
767.14	20948.87
767.476	20849.89
767.812	20904.13
768.148	20908.87
768.485	20870.68
768.821	20689.44
769.157	20705.94
769.492	20615.55
769.828	20623
770.164	20441.31
770.5	20374.87
770.836	20445.38
771.171	20302.11
771.507	20304.37
771.842	20264.37
772.178	20240.41
772.513	20240.19
772.849	20065.5
773.184	20038.61
773.519	20098.72
773.855	19926.98
774.19	19784.61
774.525	19781.44
774.86	19752.97
775.195	19703.03
775.53	19620.32
775.865	19457.84
776.2	19502.58
776.535	19367.89
776.87	19386.2
777.205	19236.37
777.539	19250.16
777.874	19184.62
778.209	18955.7
778.543	19032.99
778.878	18882.94
779.212	18910.73
779.547	18828.47
779.881	18851.3
780.215	18652.89
780.55	18636.84
780.884	18606.78
781.218	18522.95
781.552	18572.89
781.886	18380.35
782.22	18356.4
782.554	18338.09
782.888	18091.77
783.222	18193.69
783.556	18059.68
783.889	17991.43
784.223	17882.06
784.557	17858.33
784.89	17934.94
785.224	17833.47
785.557	17712.8
785.891	17745.11
786.224	17650.65
786.558	17629.86
786.891	17467.15
787.224	17369.3
787.557	17304.45
787.891	17286.59
788.224	17137.44
788.557	17214.05
788.89	17088.86
789.223	17107.16
789.556	17034.62
789.888	16927.96
790.221	16821.75
790.554	16882.99
790.887	16778.58
791.219	16761.86
791.552	16724.12
791.884	16664.91
792.217	16579.72
792.549	16490
792.882	16348.31
793.214	16391.7
793.546	16352.61
793.879	16288.43
794.211	16095.66
794.543	16231.03
794.875	16092.05
795.207	16139.73
795.539	16081.65
795.871	16021.54
796.203	15969.34
796.535	15863.81
796.867	15857.03
797.198	15766.18
797.53	15648.9
797.862	15651.61
798.193	15720.31
798.525	15540.88
798.856	15547.2
799.188	15413.42
799.519	15382.46
799.85	15363.03
800.182	15245.29
800.513	15279.41
800.844	15114.9
801.175	15289.58
801.506	15186.31
801.837	15047.1
802.168	15025.18
802.499	15079.42
802.83	14890.05
803.161	14872.19
803.491	14898.41
803.822	14928.24
804.153	14804.4
804.483	14755.81
804.814	14688.02
805.145	14660.45
805.475	14689.37
805.805	14675.59
806.136	14639.88
806.466	14543.61
806.796	14475.59
807.126	14351.76
807.457	14401.7
807.787	14531.41
808.117	14401.7
808.447	14278.76
808.777	14238.99
809.107	14239.89
809.436	14208.26
809.766	14168.71
810.096	14255.03
810.426	14142.5
810.755	14202.15
811.085	14074.25
811.414	14116.06
811.744	13988.83
812.073	13988.38
812.403	13881.26
812.732	13810.07
813.061	13956.74
813.39	13816.18
813.719	13777.76
814.049	13851.43
814.378	13784.99
814.707	13674.49
815.036	13665.67
815.365	13571.21
815.693	13572.34
816.022	13540.7
816.351	13486.92
816.68	13372.57
817.008	13478.56
817.337	13379.58
817.665	13399.92
817.994	13312.46
818.322	13448.95
818.651	13325.79
818.979	13293.93
819.307	13296.64
819.636	13248.06
819.964	13204.67
820.292	13236.53
820.62	13175.52
820.948	13211.9
821.276	13249.19
821.604	13172.8
821.932	13243.54
822.259	13241.05
822.587	13177.32
822.915	13152.01
823.243	13248.06
823.57	13189.75
823.898	13263.65
824.225	13141.84
824.553	13148.62
824.88	13144.56
825.207	13153.59
825.535	13107.95
825.862	13167.83
826.189	13156.98
826.516	13196.76
826.843	13180.94
827.17	13232.69
827.497	13166.93
827.824	13295.51
828.151	13301.16
828.478	13150.66
828.805	13239.69
829.131	13150.21
829.458	13192.69
829.785	13089.64
830.111	13229.53
830.438	13287.38
830.764	13156.76
831.09	13142.52
831.417	13133.48
831.743	13177.77
832.069	13214.61
832.395	13131.67
832.722	13223.88
833.048	13140.04
833.374	13155.85
833.7	13180.71
834.026	13138.91
834.351	13141.39
834.677	13141.62
835.003	13147.72
835.329	13118.79
835.654	13137.55
835.98	13092.13
836.306	13102.3
836.631	13055.29
836.956	13234.27
837.282	13082.18
837.607	13048.74
837.932	12933.04
838.258	12973.71
838.583	12961.06
838.908	12907.73
839.233	12912.7
839.558	12871.34
839.883	12859.14
840.208	12801.74
840.533	12842.19
840.858	12815.52
841.182	12820.95
841.507	12860.95
841.832	12737.33
842.156	12763.1
842.481	12797.22
842.805	12729.43
843.13	12672.03
843.454	12595.42
843.778	12584.34
844.103	12557.9
844.427	12527.17
844.751	12472.48
845.075	12566.04
845.399	12432.48
845.723	12411.69
846.047	12456.89
846.371	12267.06
846.695	12255.99
847.019	12288.08
847.343	12154.3
847.666	12070.69
847.99	12053.06
848.313	12041.31
848.637	11984.36
848.96	11987.3
849.284	11985.04
849.607	11831.37
849.931	11826.17
850.254	11788.66
850.577	11667.98
850.9	11609.45
851.223	11630.47
851.546	11632.5
851.869	11521.55
852.192	11589.57
852.515	11519.29
852.838	11402.23
853.161	11388.67
853.483	11313.87
853.806	11278.39
854.129	11253.98
854.451	11267.09
854.774	11131.73
855.096	11174.66
855.419	11096.47
855.741	11056.7
856.063	10991.84
856.385	10994.1
856.708	11030.26
857.03	11033.42
857.352	10891.51
857.674	10967.89
857.996	10985.52
858.318	10818.97
858.64	10745.52
858.961	10698.52
859.283	10753.21
859.605	10683.6
859.926	10762.92
860.248	10650.61
860.57	10628.92
860.891	10649.93
861.212	10589.82
861.534	10545.75
861.855	10505.53
862.176	10486.55
862.498	10525.42
862.819	10536.49
863.14	10441.35
863.461	10407.9
863.782	10416.49
864.103	10486.77
864.424	10362.93
864.745	10398.64
865.065	10260.79
865.386	10293.56
865.707	10292.88
866.027	10294.69
866.348	10268.25
866.668	10190.73
866.989	10179.21
867.309	10156.84
867.63	10105.31
867.95	10188.02
868.27	10148.02
868.59	10175.82
868.91	10124.52
869.23	10049.95
869.55	10106.67
869.87	10077.07
870.19	10030.29
870.51	10098.99
870.83	9984.86
871.15	9969.5
871.469	9950.97
871.789	9969.5
872.109	9986.9
872.428	9910.74
872.748	9934.02
873.067	9916.84
873.386	9885.66
873.706	9803.4
874.025	9856.05
874.344	9771.99
874.663	9868.94
874.982	9807.24
875.301	9815.83
875.62	9790.75
875.939	9800.01
876.258	9805.66
876.577	9678.66
876.896	9735.61
877.214	9696.51
877.533	9662.39
877.852	9693.12
878.17	9724.98
878.489	9697.87
878.807	9658.77
879.125	9584.88
879.444	9582.39
879.762	9566.8
880.08	9559.34
880.398	9474.14
880.716	9589.62
881.034	9523.41
881.352	9518.89
881.67	9499.68
881.988	9442.28
882.306	9474.82
882.624	9444.54
882.941	9385.33
883.259	9356.63
883.577	9298.55
883.894	9329.06
884.212	9323.64
884.529	9346.92
884.846	9263.3
885.164	9238.44
885.481	9256.3
885.798	9273.24
886.115	9117.32
886.432	9169.52
886.75	9186.69
887.067	9131.1
887.383	9114.83
887.7	9196.18
888.017	8986.92
888.334	9090.2
888.651	9064.44
888.967	8932.24
889.284	9001.39
889.6	8936.53
889.917	8894.95
890.233	8904.22
890.55	8863.76
890.866	8892.46
891.182	8857.44
891.498	8829.41
891.815	8796.65
892.131	8775.4
892.447	8778.12
892.763	8719.14
893.079	8697.44
893.395	8693.83
893.71	8716.2
894.026	8661.06
894.342	8620.61
894.657	8515.75
894.973	8571.34
895.289	8529.99
895.604	8487.05
895.92	8508.97
896.235	8434.17
896.55	8406.83
896.865	8431.91
897.181	8367.96
897.496	8390.56
897.811	8311.24
898.126	8349.65
898.441	8247.74
898.756	8255.42
899.071	8195.08
899.386	8202.76
899.7	8160.28
900.015	8117.8
900.33	8022.88
900.644	8092.03
900.959	8010.68
901.273	7972.04
901.588	8007.52
901.902	7976.33
902.216	7889.55
902.531	7932.49
902.845	7858.14
903.159	7778.59
903.473	7832.15
903.787	7806.84
904.101	7737.24
904.415	7779.95
904.729	7738.37
905.042	7652.72
905.356	7673.29
905.67	7651.37
905.984	7619.05
906.297	7619.73
906.611	7571.37
906.924	7482.11
907.237	7498.83
907.551	7499.73
907.864	7428.77
908.177	7401.88
908.491	7351.04
908.804	7327.99
909.117	7257.25
909.43	7290.47
909.743	7186.75
910.056	7264.94
910.368	7235.33
910.681	7160.08
910.994	7182.23
911.307	7123.92
911.619	7064.26
911.932	7050.48
912.244	7026.52
912.557	7071.04
912.869	6919.18
913.181	7007.77
913.494	7021.55
913.806	6926.19
914.118	6853.65
914.43	6863.59
914.742	6830.82
915.054	6771.39
915.366	6778.4
915.678	6742.24
915.99	6754.44
916.302	6668.12
916.613	6646.2
916.925	6646.42
917.236	6575.46
917.548	6534.79
917.859	6592.19
918.171	6525.07
918.482	6516.26
918.794	6505.63
919.105	6431.96
919.416	6382.93
919.727	6395.81
920.038	6405.3
920.349	6369.59
920.66	6289.59
920.971	6302.93
921.282	6250.73
921.593	6298.41
921.903	6208.92
922.214	6229.03
922.525	6173.21
922.835	6158.52
923.146	6076.04
923.456	6036.95
923.767	6063.39
924.077	6026.78
924.387	6064.52
924.697	6057.06
925.008	5960.56
925.318	5951.3
925.628	5926.67
925.938	5939.55
926.248	5853.22
926.558	5860.91
926.867	5828.36
927.177	5779.33
927.487	5738.87
927.796	5700.23
928.106	5742.04
928.416	5663.17
928.725	5658.88
929.034	5650.74
929.344	5663.85
929.653	5664.53
929.962	5565.55
930.271	5543.85
930.581	5535.26
930.89	5501.59
931.199	5470.86
931.508	5432.89
931.817	5444.42
932.125	5488.26
932.434	5412.33
932.743	5315.16
933.051	5361.03
933.36	5340.92
933.669	5271.99
933.977	5253.69
934.286	5259.79
934.594	5249.62
934.902	5220.7
935.21	5201.71
935.519	5189.51
935.827	5168.04
936.135	5118.1
936.443	5127.59
936.751	5088.27
937.059	5099.12
937.367	5025.67
937.674	5060.25
937.982	5026.35
938.29	5013.24
938.597	4949.97
938.905	4957.65
939.213	4908.39
939.52	4895.05
939.827	4922.85
940.135	4893.7
940.442	4863.64
940.749	4792.68
941.056	4864.55
941.363	4748.39
941.67	4769.86
941.977	4747.94
942.284	4729.18
942.591	4725.34
942.898	4699.81
943.205	4674.04
943.511	4667.49
943.818	4669.07
944.125	4604.22
944.431	4618
944.738	4587.27
945.044	4581.62
945.35	4560.15
945.657	4530.32
945.963	4533.48
946.269	4529.19
946.575	4472.47
946.881	4467.72
947.187	4442.41
947.493	4381.62
947.799	4365.13
948.105	4347.72
948.41	4353.37
948.716	4321.96
949.022	4319.02
949.327	4304.11
949.633	4265.69
949.938	4271.79
950.244	4253.72
950.549	4185.02
950.854	4192.93
951.16	4218.24
951.465	4158.35
951.77	4209.88
952.075	4167.84
952.38	4102.76
952.685	4103.89
952.99	4077.68
953.294	4096.88
953.599	4056.43
953.904	4058.47
954.209	4013.72
954.513	4031.8
954.818	3982.76
955.122	4039.26
955.426	3985.93
955.731	3926.72
956.035	3957.23
956.339	3916.78
956.643	3917.23
956.948	3888.3
957.252	3862.09
957.556	3845.82
957.86	3827.74
958.163	3800.85
958.467	3832.26
958.771	3800.17
959.075	3765.14
959.378	3738.7
959.682	3764.46
959.985	3727.18
960.289	3723.11
960.592	3715.2
960.896	3674.3
961.199	3636.56
961.502	3651.02
961.805	3611.7
962.108	3608.08
962.411	3573.96
962.714	3586.84
963.017	3566.73
963.32	3575.32
963.623	3530.8
963.926	3528.31
964.228	3522.89
964.531	3534.64
964.833	3496.45
965.136	3451.03
965.438	3467.3
965.741	3451.93
966.043	3450.57
966.345	3395.89
966.648	3353.85
966.95	3383
967.252	3380.52
967.554	3370.12
967.856	3347.75
968.158	3330.35
968.46	3346.4
968.761	3308.2
969.063	3328.77
969.365	3258.04
969.666	3305.72
969.968	3208.32
970.269	3242.22
970.571	3229.11
970.872	3193.86
971.174	3175.1
971.475	3183.69
971.776	3221.88
972.077	3174.42
972.378	3162.45
972.679	3159.96
972.98	3114.76
973.281	3089.9
973.582	3085.16
973.883	3107.53
974.183	3070.47
974.484	3053.75
974.785	3018.04
975.085	3040.87
975.386	3020.98
975.686	2996.57
975.986	3003.35
976.287	3001.09
976.587	2945.05
976.887	2956.57
977.187	2907.99
977.487	2935.78
977.787	2916.12
978.087	2915.22
978.387	2912.73
978.687	2894.88
978.987	2885.62
979.286	2855.33
979.586	2866.18
979.885	2807.65
980.185	2804.49
980.484	2802.91
980.784	2808.33
981.083	2808.56
981.382	2755.45
981.682	2799.52
981.981	2785.51
982.28	2754.77
982.579	2721.1
982.878	2734.66
983.177	2698.5
983.475	2718.61
983.774	2678.16
984.073	2629.58
984.372	2662.12
984.67	2635.23
984.969	2661.89
985.267	2652.85
985.566	2592.06
985.864	2568.34
986.162	2591.16
986.461	2573.53
986.759	2563.14
987.057	2559.75
987.355	2522.46
987.653	2542.12
987.951	2496.02
988.249	2506.64
988.547	2513.2
988.844	2512.07
989.142	2479.98
989.44	2436.59
989.737	2455.57
990.035	2447.44
990.332	2420.09
990.63	2434.33
990.927	2367.66
991.224	2370.38
991.521	2391.84
991.819	2364.73
992.116	2352.52
992.413	2347.78
992.71	2361.11
993.006	2342.81
993.303	2337.16
993.6	2288.34
993.897	2293.54
994.193	2286.99
994.49	2302.13
994.787	2257.84
995.083	2276.37
995.379	2276.14
995.676	2242.02
995.972	2241.34
996.268	2205.41
996.565	2232.07
996.861	2191.62
997.157	2188.69
997.453	2190.72
997.749	2178.29
998.044	2152.53
998.34	2131.96
998.636	2166.31
998.932	2138.29
999.227	2123.6
999.523	2090.83
999.818	2058.75
1000.114	2061.68
1000.409	2077.95
1000.704	2074.79
1001	2058.75
1001.295	2052.64
1001.59	2018.07
1001.885	2028.01
1002.18	2025.98
1002.475	1968.35
1002.77	2018.07
1003.065	1976.71
1003.359	1938.75
1003.654	1974.45
1003.949	1987.33
1004.243	1965.19
1004.538	1953.66
1004.832	1921.57
1005.127	1943.49
1005.421	1905.53
1005.715	1911.86
1006.009	1907.56
1006.304	1862.37
1006.598	1871.41
1006.892	1859.43
1007.186	1833.67
1007.48	1844.51
1007.773	1827.11
1008.067	1803.84
1008.361	1810.39
1008.655	1804.97
1008.948	1800.45
1009.242	1786.44
1009.535	1779.66
1009.829	1736.04
1010.122	1744.18
1010.415	1666.89
1010.708	1706.66
1011.001	1741.69
1011.295	1737.85
1011.588	1693.33
1011.881	1685.42
1012.173	1646.1
1012.466	1663.28
1012.759	1642.94
1013.052	1643.39
1013.344	1658.76
1013.637	1628.47
1013.93	1604.07
1014.222	1604.97
1014.514	1610.17
1014.807	1607.23
1015.099	1599.77
1015.391	1609.04
1015.683	1565.42
1015.976	1559.55
1016.268	1531.3
1016.56	1533.11
1016.851	1538.08
1017.143	1500.79
1017.435	1535.82
1017.727	1503.05
1018.018	1517.29
1018.31	1516.84
1018.602	1427.58
1018.893	1466.67
1019.185	1448.37
1019.476	1457.86
1019.767	1449.72
1020.058	1449.72
1020.35	1426.67
1020.641	1424.86
1020.932	1447.69
1021.223	1409.95
1021.514	1419.21
1021.804	1370.85
1022.095	1345.54
1022.386	1364.3
1022.677	1334.47
1022.967	1360.01
1023.258	1345.09
1023.548	1350.52
1023.839	1313.68
1024.129	1288.6
1024.419	1279.56
1024.709	1294.7
1025	1297.41
1025.29	1296.96
1025.58	1298.54
1025.87	1276.62
1026.16	1257.86
1026.449	1237.75
1026.739	1225.09
1027.029	1244.98
1027.319	1232.55
1027.608	1243.17
1027.898	1216.28
1028.187	1211.99
1028.477	1178.32
1028.766	1194.14
1029.055	1203.63
1029.344	1181.25
1029.634	1180.12
1029.923	1172.89
1030.212	1180.12
1030.501	1151.42
1030.79	1147.36
1031.078	1111.2
1031.367	1116.4
1031.656	1151.2
1031.945	1113.23
1032.233	1113.46
1032.522	1101.48
1032.81	1094.7
1033.099	1066
1033.387	1077.98
1033.675	1056.29
1033.963	1068.71
1034.251	1082.05
1034.54	1065.33
1034.828	1042.73
1035.116	1039.34
1035.403	1057.19
1035.691	1010.64
1035.979	999.56
1036.267	1023.97
1036.554	1030.07
1036.842	987.59
1037.129	997.53
1037.417	1007.47
1037.704	1001.15
1037.992	989.39
1038.279	955.95
1038.566	995.27
1038.853	995.27
1039.14	995.27
