Data from 350_FLMS001491_004.txt Node
Date: Thu Apr 19 15:44:31 BST 2018
User: hsy
Spectrometer: FLMS00149
Trigger mode: 0
Integration Time (sec): 1.000000E-2
Scans to average: 10
Electric dark correction enabled: true
Nonlinearity correction enabled: false
Boxcar width: 0
XAxis mode: Wavelengths
Number of Pixels in Spectrum: 2048
>>>>>Begin Spectral Data<<<<<
341.393	17.98
341.776	17.98
342.16	17.98
342.543	-47.1
342.927	-78.74
343.31	-59.76
343.693	-76.71
344.077	-77.16
344.46	-77.61
344.843	-57.95
345.226	-41.68
345.61	-24.28
345.993	-18.4
346.376	3.06
346.759	9.17
347.142	14.36
347.525	53.46
347.908	59.33
348.291	84.87
348.674	90.75
349.057	118.54
349.44	143.63
349.823	132.78
350.206	162.61
350.588	227.47
350.971	250.97
351.354	242.15
351.737	252.1
352.119	267.46
352.502	286
352.884	297.75
353.267	290.97
353.65	313.11
354.032	301.14
354.414	312.21
354.797	334.13
355.179	300.68
355.562	347.46
355.944	340.23
356.326	368.93
356.709	335.94
357.091	363.73
357.473	369.38
357.855	374.81
358.238	379.78
358.62	365.54
359.002	365.09
359.384	360.12
359.766	374.35
360.148	373.22
360.53	351.98
360.912	375.26
361.294	360.8
361.676	370.74
362.057	354.92
362.439	364.64
362.821	371.19
363.203	365.54
363.584	357.63
363.966	363.06
364.348	357.86
364.729	353.11
365.111	368.7
365.493	366.67
365.874	360.8
366.256	368.03
366.637	354.24
367.019	357.41
367.4	334.81
367.781	332.1
368.163	347.46
368.544	348.59
368.925	374.35
369.306	359.89
369.688	345.65
370.069	356.95
370.45	357.18
370.831	355.15
371.212	355.37
371.593	355.15
371.974	369.61
372.355	365.77
372.736	355.82
373.117	374.35
373.498	363.28
373.879	365.54
374.26	363.96
374.641	362.38
375.021	342.04
375.402	389.04
375.783	378.65
376.163	377.97
376.544	384.75
376.925	381.81
377.305	383.17
377.686	374.13
378.066	395.82
378.447	370.96
378.827	388.82
379.208	404.64
379.588	372.77
379.968	392.66
380.349	393.79
380.729	403.28
381.109	386.33
381.489	409.83
381.87	418.42
382.25	405.77
382.63	381.13
383.01	414.13
383.39	429.04
383.77	432.43
384.15	420
384.53	411.64
384.91	408.93
385.29	413.22
385.67	420.23
386.049	423.39
386.429	423.62
386.809	426.33
387.189	436.05
387.568	416.16
387.948	448.93
388.328	452.77
388.707	449.83
389.087	450.51
389.466	466.56
389.846	449.15
390.225	463.62
390.605	461.58
390.984	469.04
391.363	467.23
391.743	477.18
392.122	466.78
392.501	472.43
392.881	491.19
393.26	484.63
393.639	491.87
394.018	491.41
394.397	508.14
394.776	512.66
395.155	514.69
395.534	509.94
395.913	508.36
396.292	496.39
396.671	512.66
397.05	527.34
397.429	520.57
397.808	527.34
398.186	521.02
398.565	532.09
398.944	541.13
399.323	541.13
399.701	553.33
400.08	545.88
400.458	521.24
400.837	554.91
401.215	555.59
401.594	549.04
401.972	566.89
402.351	561.69
402.729	557.4
403.107	562.82
403.486	587.46
403.864	570.06
404.242	609.15
404.62	564.86
404.999	605.31
405.377	616.16
405.755	597.85
406.133	615.03
406.511	598.08
406.889	612.31
407.267	625.42
407.645	620
408.023	614.8
408.401	631.3
408.779	660.9
409.156	662.48
409.534	674.69
409.912	667.91
410.29	671.97
410.667	688.7
411.045	679.66
411.422	686.66
411.8	707
412.178	703.39
412.555	721.24
412.933	725.53
413.31	743.61
413.687	723.05
414.065	759.88
414.442	770.5
414.819	744.97
415.197	774.8
415.574	753.55
415.951	784.97
416.328	778.19
416.705	779.32
417.082	799.43
417.46	771.41
417.837	796.49
418.214	805.76
418.591	811.41
418.967	806.43
419.344	815.92
419.721	850.05
420.098	831.07
420.475	847.79
420.852	839.2
421.228	825.87
421.605	834.46
421.982	862.48
422.358	908.58
422.735	877.17
423.111	875.81
423.488	890.05
423.864	879.43
424.241	897.5
424.617	907.9
424.994	923.04
425.37	914.91
425.746	911.74
426.123	956.49
426.499	945.19
426.875	978.41
427.251	962.36
427.627	980.21
428.003	985.64
428.379	992.42
428.756	1013.66
429.132	1046.88
429.507	1039.42
429.883	1060.21
430.259	1057.95
430.635	1047.33
431.011	1062.92
431.387	1099.08
431.763	1146.76
432.138	1086.65
432.514	1121.45
432.89	1153.77
433.265	1147.44
433.641	1161.9
434.016	1152.87
434.392	1161.23
434.767	1199.19
435.143	1189.47
435.518	1202.81
435.894	1239.64
436.269	1241.22
436.644	1259.98
437.02	1252.52
437.395	1262.24
437.77	1280.55
438.145	1314.44
438.52	1304.73
438.895	1311.05
439.271	1332.97
439.646	1348.34
440.021	1369.58
440.395	1378.85
440.77	1368.45
441.145	1383.82
441.52	1405.97
441.895	1384.72
442.27	1398.96
442.645	1408.23
443.019	1409.58
443.394	1407.1
443.769	1424.27
444.143	1423.59
444.518	1483.7
444.892	1464.27
445.267	1476.92
445.641	1472.4
446.016	1505.4
446.39	1477.15
446.764	1505.17
447.139	1525.28
447.513	1518.73
447.887	1531.16
448.262	1529.8
448.636	1560.99
449.01	1575
449.384	1563.25
449.758	1571.61
450.132	1602.34
450.506	1622.01
450.88	1627.65
451.254	1634.43
451.628	1616.81
452.002	1689.8
452.376	1675.11
452.75	1679.86
453.123	1699.29
453.497	1728.9
453.871	1746.07
454.244	1758.27
454.618	1772.96
454.992	1820.42
455.365	1823.36
455.739	1849.12
456.112	1866.52
456.486	1878.95
456.859	1908.1
457.232	1925.05
457.606	1929.57
457.979	1953.75
458.352	1983.58
458.725	2035.33
459.099	2037.14
459.472	2072.39
459.845	2120.52
460.218	2109.68
460.591	2126.62
460.964	2161.2
461.337	2211.59
461.71	2247.3
462.083	2263.34
462.456	2270.58
462.829	2249.33
463.201	2308.09
463.574	2301.54
463.947	2338.82
464.32	2355.32
464.692	2413.17
465.065	2434.64
465.438	2434.19
465.81	2444.81
466.183	2473.73
466.555	2525.94
466.928	2589.89
467.3	2555.77
467.672	2616.78
468.045	2644.8
468.417	2657.46
468.789	2701.07
469.161	2701.07
469.534	2760.05
469.906	2794.63
470.278	2813.16
470.65	2833.72
471.022	2918.24
471.394	2929.77
471.766	2991.01
472.138	2993.95
472.51	3040.27
472.882	3104.68
473.253	3158.01
473.625	3184
473.997	3283.2
474.369	3267.61
474.74	3300.38
475.112	3360.49
475.484	3416.76
475.855	3492.46
476.227	3502.18
476.598	3584.21
476.97	3643.65
477.341	3696.08
477.713	3736.53
478.084	3774.94
478.455	3882.06
478.827	3901.04
479.198	4042.28
479.569	3981.94
479.94	4131.09
480.311	4154.82
480.682	4287.7
481.053	4373.57
481.424	4386
481.795	4443.4
482.166	4508.03
482.537	4614.02
482.908	4736.5
483.279	4759.78
483.65	4845.65
484.021	4963.61
484.391	4960.67
484.762	5102.59
485.133	5127.9
485.503	5252.87
485.874	5354.11
486.244	5383.71
486.615	5477.72
486.985	5562.47
487.356	5642.24
487.726	5740.54
488.097	5884.72
488.467	5924.04
488.837	5999.74
489.207	6090.59
489.578	6140.3
489.948	6287.65
490.318	6386.17
490.688	6435.89
491.058	6528.09
491.428	6642.66
491.798	6650.57
492.168	6848.53
492.538	6841.76
492.908	6968.31
493.278	7119.71
493.648	7166.72
494.017	7228.64
494.387	7294.4
494.757	7393.61
495.126	7521.29
495.496	7580.04
495.866	7618.23
496.235	7715.63
496.605	7829.3
496.974	7866.81
497.344	8059.35
497.713	8055.73
498.082	8079.46
498.452	8253.92
498.821	8283.3
499.19	8319
499.559	8350.42
499.928	8489.4
500.298	8568.49
500.667	8652.33
501.036	8661.59
501.405	8766.9
501.774	8873.57
502.143	8918.31
502.512	8924.41
502.88	9098.19
503.249	9121.02
503.618	9217.96
503.987	9239.66
504.356	9354.91
504.724	9386.32
505.093	9432.65
505.462	9566.2
505.83	9608.01
506.199	9718.97
506.567	9883.03
506.936	9846.42
507.304	10039.64
507.672	10098.17
508.041	10137.26
508.409	10225.39
508.777	10271.95
509.145	10431.04
509.514	10375
509.882	10472.39
510.25	10579.28
510.618	10645.04
510.986	10686.85
511.354	10806.85
511.722	10983.57
512.09	11128.42
512.458	11070.34
512.826	11208.65
513.193	11294.75
513.561	11295.42
513.929	11335.65
514.297	11506.49
514.664	11731.8
515.032	11666.49
515.4	11777.22
515.767	11846.6
516.135	11887.95
516.502	11865.58
516.869	12074.16
517.237	12169.3
517.604	12114.16
517.972	12353.02
518.339	12454.94
518.706	12523.41
519.073	12578.55
519.44	12627.82
519.808	12889.73
520.175	12899.22
520.542	13022.61
520.909	13208.82
521.276	13136.96
521.643	13421.7
522.009	13430.28
522.376	13498.76
522.743	13617.17
523.11	13771.52
523.477	13933.32
523.843	13949.14
524.21	14152.98
524.577	14299.64
524.943	14311.39
525.31	14411.27
525.676	14656.01
526.043	14755.9
526.409	14819.17
526.776	15020.98
527.142	15050.13
527.508	15148.88
527.874	15306.62
528.241	15419.61
528.607	15430
528.973	15663.9
529.339	15660.73
529.705	15791.8
530.071	15916.54
530.437	16106.14
530.803	16107.05
531.169	16252.81
531.535	16399.92
531.901	16402.18
532.267	16471.56
532.632	16674.26
532.998	16655.73
533.364	16742.96
533.73	16705.9
534.095	16975.27
534.461	17001.49
534.826	17045.78
535.192	17169.85
535.557	17322.38
535.923	17282.84
536.288	17405.09
536.653	17433.79
537.019	17546.11
537.384	17582.26
537.749	17660
538.114	17765.54
538.479	17746.33
538.845	17766.67
539.21	17770.06
539.575	17931.41
539.94	18022.7
540.305	18130.27
540.67	18109.93
541.034	18179.08
541.399	18212.3
541.764	18348.12
542.129	18276.26
542.494	18403.71
542.858	18449.81
543.223	18458.17
543.587	18673.53
543.952	18672.4
544.316	18654.33
544.681	18628.56
545.045	18819.29
545.41	18907.65
545.774	18887.54
546.138	18932.28
546.503	18999.85
546.867	19024.71
547.231	19216.8
547.595	19157.36
547.959	19220.19
548.324	19238.04
548.688	19303.57
549.052	19397.58
549.416	19321.88
549.779	19407.98
550.143	19473.06
550.507	19514.87
550.871	19662.43
551.235	19717.35
551.599	19820.62
551.962	19928.42
552.326	19920.96
552.689	20087.96
553.053	19851.36
553.417	20166.6
553.78	20304.23
554.143	20250.44
554.507	20296.09
554.87	20455.86
555.234	20570.66
555.597	20425.58
555.96	20666.02
556.323	20666.25
556.686	20766.81
557.05	20901.95
557.413	20967.49
557.776	20875.51
558.139	21135.84
558.502	21084.32
558.865	21197.31
559.228	21366.57
559.59	21363.86
559.953	21505.32
560.316	21874.58
560.679	21751.65
561.041	21831.64
561.404	21997.51
561.767	22052.65
562.129	22065.08
562.492	22346.88
562.854	22402.02
563.217	22447.67
563.579	22554.79
563.941	22763.82
564.304	22863.48
564.666	23054.89
565.028	22990.71
565.39	23054.66
565.753	23291.94
566.115	23240.42
566.477	23391.38
566.839	23594.99
567.201	23882.21
567.563	23834.75
567.925	24039.04
568.287	24025.71
568.648	23995.88
569.01	24201.52
569.372	24424.8
569.734	24505.7
570.095	24557.45
570.457	24706.37
570.819	24799.02
571.18	24864.78
571.542	25139.35
571.903	25112.46
572.265	25198.56
572.626	25370.53
572.987	25409.18
573.349	25508.16
573.71	25592
574.071	25719.9
574.432	25831.76
574.794	25981.59
575.155	25982.72
575.516	26051.87
575.877	26141.59
576.238	26192.66
576.599	26299.32
576.96	26298.87
577.32	26543.61
577.681	26473.56
578.042	26592.2
578.403	26609.14
578.763	26591.07
579.124	26640.33
579.485	26777.73
579.845	26923.49
580.206	26833.55
580.566	26944.73
580.927	26848.46
581.287	27014.56
581.648	26870.83
582.008	27093.88
582.368	27087.78
582.728	26968.91
583.089	26973.2
583.449	27039.42
583.809	27107.66
584.169	27135.46
584.529	27155.35
584.889	27317.83
585.249	27009.81
585.609	27003.48
585.969	27236.02
586.329	27050.26
586.688	27242.35
587.048	27071.28
587.408	27154.22
587.768	27181.56
588.127	27110.6
588.487	27125.97
588.846	27244.61
589.206	27088.45
589.565	27112.86
589.925	27235.57
590.284	27188.56
590.643	27122.13
591.003	27072.86
591.362	27306.53
591.721	27181.33
592.08	27185.4
592.44	27301.78
592.799	27223.37
593.158	27182.69
593.517	27114.89
593.876	27337.26
594.235	27106.98
594.593	27158.96
594.952	27249.81
595.311	27159.64
595.67	27168.45
596.029	27243.25
596.387	27288.68
596.746	27335.23
597.104	27207.55
597.463	27187.21
597.822	27390.59
598.18	27289.58
598.538	27323.93
598.897	27527.54
599.255	27201.67
599.613	27537.93
599.972	27410.48
600.33	27424.72
600.688	27262.69
601.046	27370.71
601.404	27507.88
601.762	27320.54
602.12	27552.62
602.478	27572.51
602.836	27525.96
603.194	27456.81
603.552	27460.2
603.91	27408.45
604.268	27621.32
604.625	27567.76
604.983	27565.5
605.341	27509.69
605.698	27614.09
606.056	27727.08
606.413	27569.35
606.771	27746.29
607.128	27583.36
607.485	27617.25
607.843	27705.61
608.2	27813.41
608.557	27885.5
608.914	27689.79
609.272	27909.9
609.629	28058.6
609.986	28136.56
610.343	28101.99
610.7	28220.18
611.057	28153.96
611.414	28144.25
611.771	28177.92
612.127	28290.91
612.484	28301.76
612.841	28331.81
613.198	28268.31
613.554	28245.94
613.911	28467.4
614.267	28405.71
614.624	28479.6
614.98	28433.28
615.337	28646.15
615.693	28584.69
616.05	28645.25
616.406	28701.97
616.762	28631.69
617.118	28627.85
617.475	28605.93
617.831	28778.35
618.187	28743.78
618.543	28749.88
618.899	28919.82
619.255	28979.93
619.611	28895.41
619.967	29142.86
620.323	29117.78
620.678	28976.31
621.034	28980.61
621.39	29016.09
621.746	29085.92
622.101	29402.74
622.457	29045.69
622.812	29143.99
623.168	29259.47
623.523	29233.03
623.879	29324.1
624.234	29084.33
624.589	29116.2
624.945	29165.69
625.3	29202.3
625.655	29242.07
626.01	29290.43
626.365	29341.05
626.72	29197.1
627.075	29272.35
627.43	29238.23
627.785	29137.67
628.14	29220.15
628.495	29196.2
628.85	29239.13
629.205	29177.21
629.559	29233.03
629.914	29071
630.269	29030.55
630.623	28960.5
630.978	28972.02
631.332	29150.32
631.687	29082.07
632.041	28973.15
632.396	28984
632.75	28878.69
633.104	28927.28
633.459	28852.02
633.813	28822.42
634.167	28760.95
634.521	28795.98
634.875	28826.94
635.229	28682.08
635.583	28540.17
635.937	28539.72
636.291	28599.6
636.645	28549.66
636.999	28385.82
637.352	28584.01
637.706	28283.68
638.06	28595.76
638.413	28342.88
638.767	28332.49
639.121	28328.42
639.474	28228.54
639.828	28105.38
640.181	28254.3
640.534	28205.49
640.888	28081.87
641.241	27941.54
641.594	28059.28
641.947	27972.72
642.301	27873.74
642.654	28030.58
643.007	27930.92
643.36	28002.1
643.713	28024.93
644.066	28009.11
644.419	27832.16
644.771	27441.89
645.124	27332.52
645.477	27280.99
645.83	27080.32
646.182	27254.78
646.535	27055.23
646.888	27154.44
647.24	27151.96
647.593	27240.31
647.945	27091.84
648.298	27130.26
648.65	26863.15
649.002	26726.2
649.355	26534.8
649.707	26303.39
650.059	26232.21
650.411	26813.21
650.763	27013.43
651.115	27438.95
651.467	27398.5
651.819	27263.14
652.171	27322.35
652.523	27113.09
652.875	27157.83
653.227	27228.11
653.578	27376.58
653.93	27326.41
654.282	27068.12
654.633	27179.53
654.985	27157.15
655.337	27230.37
655.688	27101.11
656.039	27125.29
656.391	26873.32
656.742	27007.33
657.094	27032.41
657.445	27136.81
657.796	27034.9
658.147	26914.22
658.498	27008.68
658.849	27196.7
659.2	27051.17
659.551	26907.22
659.902	27068.34
660.253	26869.7
660.604	26937.72
660.955	26965.97
661.306	26998.29
661.656	27049.81
662.007	26908.8
662.358	26946.31
662.708	26831.29
663.059	26962.58
663.409	26952.41
663.76	26926.2
664.11	26994.22
664.461	27098.85
664.811	27028.79
665.161	27072.86
665.511	26980.21
665.862	26929.36
666.212	27027.89
666.562	27056.14
666.912	26922.36
667.262	26893.21
667.612	26986.08
667.962	27091.62
668.312	26961.45
668.662	27078.06
669.011	27001.68
669.361	26906.09
669.711	27007.1
670.06	26904.73
670.41	26949.7
670.76	27001
671.109	26951.96
671.459	26901.57
671.808	26921.45
672.157	27014.56
672.507	26851.85
672.856	26737.5
673.205	26936.59
673.554	26930.94
673.904	26716.94
674.253	26976.59
674.602	26776.6
674.951	26455.02
675.3	26337.06
675.649	26796.94
675.998	26760.1
676.346	26758.97
676.695	26864.96
677.044	26622.93
677.393	26679.2
677.741	26758.52
678.09	26642.82
678.438	26528.47
678.787	26637.39
679.135	26500.45
679.484	26359.21
679.832	26532.08
680.181	26389.04
680.529	26401.69
680.877	26230.17
681.225	26258.42
681.573	26424.52
681.922	26262.26
682.27	26260.45
682.618	26191.3
682.966	26150.4
683.314	26203.73
683.661	26098.88
684.009	25944.08
684.357	25896.17
684.705	25859.56
685.053	25890.29
685.4	25860.01
685.748	25829.96
686.095	25703.18
686.443	25610.75
686.79	25635.16
687.138	25693.24
687.485	25439.46
687.832	25392.68
688.18	25555.61
688.527	25406.92
688.874	25247.82
689.221	25320.37
689.568	25225.68
689.915	25069.98
690.262	25138.45
690.609	25124.66
690.956	24899.59
691.303	24843.09
691.65	24823.2
691.997	24704.34
692.344	24699.82
692.69	24521.97
693.037	24605.58
693.383	24310.22
693.73	24501.18
694.077	24346.38
694.423	24287.4
694.769	24207.85
695.116	24305.48
695.462	24059.83
695.808	24030
696.155	24077.69
696.501	23804.47
696.847	23887.18
697.193	23674.08
697.539	23705.04
697.885	23514.76
698.231	23449.23
698.577	23369.46
698.923	23485.39
699.269	23237.48
699.614	23144.83
699.96	23108.22
700.306	23012.18
700.651	22958.39
700.997	22940.99
701.342	22892.63
701.688	22672.75
702.033	22632.53
702.379	22756.59
702.724	22550.72
703.069	22712.52
703.415	22304.85
703.76	22257.62
704.105	22211.07
704.45	22269.82
704.795	22197.96
705.14	22165.87
705.485	22143.73
705.83	21988.93
706.175	22107.79
706.52	21954.8
706.865	21907.12
707.209	21766.33
707.554	21741.7
707.899	21632.33
708.243	21607.02
708.588	21617.19
708.932	21485.44
709.277	21545.32
709.621	21404.08
709.966	21215.39
710.31	21274.6
710.654	21161.15
710.998	21217.42
711.342	21220.13
711.687	21073.25
712.031	21007.26
712.375	21003.87
712.719	20972.23
713.063	20823.08
713.407	20943.08
713.75	20868.05
714.094	20807.26
714.438	20707.38
714.782	20634.84
715.125	20572.02
715.469	20783.76
715.812	20616.31
716.156	20448.18
716.499	20526.14
716.843	20540.83
717.186	20423.77
717.53	20558.91
717.873	20527.05
718.216	20482.98
718.559	20439.59
718.902	20271.46
719.246	20338.35
719.589	20204.34
719.932	20172.48
720.275	20232.14
720.617	20183.78
720.96	20255.19
721.303	20211.8
721.646	20287.05
721.989	20021.07
722.331	20138.35
722.674	20000.73
723.016	19958.47
723.359	19939.04
723.701	20052.03
724.044	19970.68
724.386	19789.44
724.729	19859.04
725.071	19922.99
725.413	19941.98
725.755	19895.65
726.097	19807.52
726.439	19725.94
726.782	19768.65
727.124	19855.2
727.465	19781.75
727.807	19689.55
728.149	19760.29
728.491	19606.39
728.833	19695.43
729.175	19646.39
729.516	19687.29
729.858	19608.88
730.199	19693.39
730.541	19545.6
730.882	19574.3
731.224	19650.46
731.565	19548.54
731.906	19627.18
732.248	19666.5
732.589	19579.05
732.93	19587.18
733.271	19477.13
733.612	19523.46
733.953	19538.6
734.294	19540.4
734.635	19431.25
734.976	19492.72
735.317	19400.29
735.658	19381.76
735.999	19393.06
736.339	19401.65
736.68	19478.49
737.021	19457.69
737.361	19381.09
737.702	19576.56
738.042	19526.62
738.383	19467.41
738.723	19512.38
739.063	19447.53
739.404	19541.76
739.744	19504.92
740.084	19448.88
740.424	19499.95
740.764	19532.27
741.104	19553.51
741.444	19469.67
741.784	19418.37
742.124	19546.73
742.464	19448.88
742.804	19503.8
743.143	19572.27
743.483	19562.78
743.823	19407.07
744.162	19441.88
744.502	19545.83
744.841	19606.62
745.181	19627.63
745.52	19565.04
745.86	19663.79
746.199	19637.58
746.538	19519.16
746.877	19744.47
747.216	19803.22
747.556	19739.27
747.895	19866.5
748.234	19810
748.573	19871.47
748.911	19779.04
749.25	19862.66
749.589	19814.75
749.928	19937.23
750.267	19897.46
750.605	19939.26
750.944	19906.95
751.283	19949.89
751.621	20035.53
751.96	19944.69
752.298	20006.15
752.636	20104.91
752.975	20016.55
753.313	20104.68
753.651	20176.77
753.989	20212.7
754.327	20148.07
754.666	20080.28
755.004	20245.92
755.342	20193.04
755.679	20274.85
756.017	20275.53
756.355	20435.07
756.693	20391.68
757.031	20324.79
757.368	20436.2
757.706	20320.04
758.044	20326.15
758.381	20351.23
758.719	20341.29
759.056	20467.39
759.394	20427.39
759.731	20252.02
760.068	20299.93
760.405	20282.08
760.743	20244.57
761.08	20340.38
761.417	20212.48
761.754	20383.32
762.091	20361.85
762.428	20236.66
762.765	20202.76
763.102	20320.72
763.438	20169.31
763.775	20226.71
764.112	20207.73
764.449	20118.02
764.785	20172.03
765.122	20111.91
765.458	20024.01
765.795	20011.35
766.131	20104.91
766.467	20031.01
766.804	20004.8
767.14	19891.81
767.476	19971.35
767.812	19908.53
768.148	19847.97
768.485	19747.63
768.821	19706.28
769.157	19748.76
769.492	19594.41
769.828	19641.87
770.164	19562.32
770.5	19412.05
770.836	19445.49
771.171	19322.56
771.507	19388.09
771.842	19264.48
772.178	19127.31
772.513	19198.72
772.849	19000.76
773.184	19123.92
773.519	18908.78
773.855	18932.74
774.19	18974.32
774.525	18765.51
774.86	18799.63
775.195	18810.03
775.53	18786.07
775.865	18558.74
776.2	18535.01
776.535	18384.05
776.87	18421.34
777.205	18350.61
777.539	18322.13
777.874	18311.74
778.209	18218.18
778.543	18212.76
778.878	18075.13
779.212	18067.67
779.547	17929.15
779.881	17921.46
780.215	17754.46
780.55	17829.49
780.884	17725.54
781.218	17684.41
781.552	17736.61
781.886	17566.67
782.22	17523.51
782.554	17495.49
782.888	17312.44
783.222	17290.52
783.556	17138.89
783.889	17106.34
784.223	17075.84
784.557	17016.18
784.89	17041.49
785.224	16893.92
785.557	16812.79
785.891	16755.84
786.224	16733.47
786.558	16820.02
786.891	16689.18
787.224	16538.9
787.557	16467.04
787.891	16449.19
788.224	16385.91
788.557	16346.36
788.89	16357.44
789.223	16239.93
789.556	16251
789.888	16161.28
790.221	16064.56
790.554	16031.12
790.887	15918.35
791.219	15860.5
791.552	15899.82
791.884	15825.47
792.217	15866.15
792.549	15806.49
792.882	15596.55
793.214	15546.84
793.546	15512.49
793.879	15572.15
794.211	15360.85
794.543	15491.92
794.875	15365.15
795.207	15316.79
795.539	15331.48
795.871	15332.15
796.203	15188.88
796.535	15080.41
796.867	15164.02
797.198	15037.02
797.53	15032.5
797.862	14892.16
798.193	14920.19
798.525	14872.73
798.856	14800.42
799.188	14642.68
799.519	14752.51
799.85	14611.95
800.182	14593.42
800.513	14607.88
800.844	14400.43
801.175	14579.63
801.506	14573.08
801.837	14447.88
802.168	14458.96
802.499	14403.59
802.83	14275.46
803.161	14299.41
803.491	14175.57
803.822	14271.16
804.153	14161.11
804.483	14112.3
804.814	14024.17
805.145	14174.44
805.475	14085.41
805.805	13947.11
806.136	14033.66
806.466	13925.18
806.796	13883.6
807.126	13799.54
807.457	13787.79
807.787	13795.02
808.117	13760.22
808.447	13606.77
808.777	13728.13
809.107	13429.83
809.436	13494.91
809.766	13497.17
810.096	13543.5
810.426	13410.85
810.755	13538.08
811.085	13370.85
811.414	13315.94
811.744	13262.15
812.073	13284.52
812.403	13269.61
812.732	13161.14
813.061	13314.35
813.39	13090.63
813.719	13159.33
814.049	13220.34
814.378	13110.74
814.707	13121.59
815.036	13109.39
815.365	13077.75
815.693	12992.55
816.022	13005.89
816.351	12915.04
816.68	12843.41
817.008	12883.4
817.337	12769.28
817.665	12789.4
817.994	12763.86
818.322	12807.02
818.651	12792.11
818.979	12651.32
819.307	12657.42
819.636	12653.58
819.964	12629.17
820.292	12650.19
820.62	12614.48
820.948	12659.68
821.276	12683.18
821.604	12648.61
821.932	12704.2
822.259	12563.19
822.587	12622.62
822.915	12644.99
823.243	12636.18
823.57	12600.93
823.898	12711.21
824.225	12597.31
824.553	12606.58
824.88	12545.56
825.207	12546.01
825.535	12493.58
825.862	12645.22
826.189	12642.05
826.516	12640.7
826.843	12597.54
827.17	12629.85
827.497	12640.7
827.824	12670.3
828.151	12669.4
828.478	12621.72
828.805	12675.73
829.131	12647.7
829.458	12676.18
829.785	12580.36
830.111	12593.24
830.438	12616.52
830.764	12619
831.09	12644.09
831.417	12511.44
831.743	12630.08
832.069	12597.99
832.395	12586.69
832.722	12605.9
833.048	12486.8
833.374	12597.08
833.7	12384.66
834.026	12532
834.351	12550.31
834.677	12555.73
835.003	12530.42
835.329	12496.75
835.654	12581.04
835.98	12458.56
836.306	12505.11
836.631	12507.14
836.956	12519.12
837.282	12474.15
837.607	12412.91
837.932	12428.05
838.258	12321.39
838.583	12358.9
838.908	12362.97
839.233	12393.93
839.558	12411.33
839.883	12306.47
840.208	12256.98
840.533	12294.95
840.858	12295.62
841.182	12190.99
841.507	12284.32
841.832	12122.97
842.156	12201.16
842.481	12164.1
842.805	12081.17
843.13	12125.01
843.454	12099.47
843.778	12062.41
844.103	12003.43
844.427	12023.99
844.751	12025.8
845.075	12028.96
845.399	11975.41
845.723	11922.3
846.047	11867.39
846.371	11818.35
846.695	11753.94
847.019	11729.54
847.343	11695.64
847.666	11650.67
847.99	11571.8
848.313	11572.7
848.637	11571.12
848.96	11494.06
849.284	11536.32
849.607	11413.61
849.931	11377.23
850.254	11345.59
850.577	11250.45
850.9	11205.93
851.223	11213.84
851.546	11147.86
851.869	11160.51
852.192	11228.53
852.515	11026.05
852.838	11066.5
853.161	10920.74
853.483	10929.33
853.806	10861.54
854.129	10821.99
854.451	10836.23
854.774	10683.01
855.096	10774.53
855.419	10670.13
855.741	10643.46
856.063	10619.96
856.385	10574.54
856.708	10569.57
857.03	10523.47
857.352	10548.55
857.674	10463.58
857.996	10338.39
858.318	10315.11
858.64	10335.22
858.961	10256.81
859.283	10293.87
859.605	10207.54
859.926	10238.05
860.248	10241.21
860.57	10160.31
860.891	10107.21
861.212	10149.69
861.534	10059.07
861.855	10070.37
862.176	10103.82
862.498	9991.5
862.819	10080.09
863.14	10022.91
863.461	10023.59
863.782	9953.09
864.103	9973.88
864.424	9941.79
864.745	9921.45
865.065	9897.95
865.386	9836.93
865.707	9906.31
866.027	9897.95
866.348	9852.98
866.668	9792.64
866.989	9839.19
867.309	9751.51
867.63	9716.71
867.95	9709.48
868.27	9794.9
868.59	9755.35
868.91	9711.74
869.23	9669.7
869.55	9698.63
869.87	9708.12
870.19	9567.79
870.51	9666.77
870.83	9631.96
871.15	9602.81
871.469	9580.89
871.789	9607.11
872.109	9531.63
872.428	9489.14
872.748	9541.35
873.067	9428.13
873.386	9564.85
873.706	9437.39
874.025	9415.47
874.344	9409.82
874.663	9471.06
874.982	9452.53
875.301	9404.17
875.62	9422.48
875.939	9356.27
876.258	9339.99
876.577	9299.54
876.896	9283.95
877.214	9288.24
877.533	9272.43
877.852	9205.99
878.17	9282.37
878.489	9263.16
878.807	9234.23
879.125	9262.93
879.444	9195.37
879.762	9139.55
880.08	9215.25
880.398	9133.67
880.716	9108.59
881.034	9175.93
881.352	9114.46
881.67	9115.14
881.988	9109.94
882.306	9065.43
882.624	9071.75
882.941	8950.85
883.259	8949.95
883.577	9007.35
883.894	8932.32
884.212	8938.88
884.529	8955.37
884.846	8951.08
885.164	8812.1
885.481	8840.8
885.798	8858.43
886.115	8814.81
886.432	8748.82
886.75	8798.31
887.067	8821.36
887.383	8754.93
887.7	8810.52
888.017	8671.99
888.334	8724.64
888.651	8743.17
888.967	8665.21
889.284	8616.17
889.6	8625.44
889.917	8563.97
890.233	8515.84
890.55	8534.37
890.866	8536.85
891.182	8466.57
891.498	8486.68
891.815	8401.49
892.131	8374.82
892.447	8421.37
892.763	8345.22
893.079	8411.21
893.395	8306.12
893.71	8343.86
894.026	8275.84
894.342	8268.61
894.657	8185.67
894.973	8175.51
895.289	8193.81
895.604	8075.85
895.92	8097.09
896.235	8111.1
896.55	8090.54
896.865	8023.42
897.181	8049.63
897.496	8025
897.811	8006.24
898.126	7947.04
898.441	7898.45
898.756	7910.2
899.071	7834.05
899.386	7843.31
899.7	7775.52
900.015	7721.73
900.33	7704.33
900.644	7728.74
900.959	7715.86
901.273	7714.27
901.588	7627.5
901.902	7600.83
902.216	7580.27
902.531	7604.45
902.845	7559.48
903.159	7500.04
903.473	7460.04
903.787	7488.29
904.101	7435.41
904.415	7443.55
904.729	7405.13
905.042	7336.88
905.356	7378.01
905.67	7318.58
905.984	7365.36
906.297	7259.15
906.611	7225.7
906.924	7210.56
907.237	7187.06
907.551	7175.76
907.864	7101.86
908.177	7140.28
908.491	7113.16
908.804	6993.16
909.117	6961.98
909.43	6987.97
909.743	6926.72
910.056	6975.08
910.368	6929.44
910.681	6857.57
910.994	6854.64
911.307	6815.09
911.619	6803.56
911.932	6793.62
912.244	6747.52
912.557	6714.3
912.869	6712.72
913.181	6716.33
913.494	6665.49
913.806	6654.19
914.118	6582.78
914.43	6576.9
914.742	6570.12
915.054	6494.65
915.366	6531.71
915.678	6486.96
915.99	6495.1
916.302	6451.93
916.613	6384.59
916.925	6425.72
917.236	6369.45
917.548	6311.83
917.859	6344.14
918.171	6281.09
918.482	6289.45
918.794	6250.36
919.105	6213.52
919.416	6127.65
919.727	6145.95
920.038	6142.34
920.349	6111.6
920.66	6060.31
920.971	6056.69
921.282	6051.49
921.593	6054.66
921.903	5948.45
922.214	5947.54
922.525	5924.49
922.835	5869.35
923.146	5863.25
923.456	5870.93
923.767	5851.5
924.077	5832.52
924.387	5846.3
924.697	5814.44
925.008	5776.47
925.318	5743.48
925.628	5770.6
925.938	5695.57
926.248	5606.31
926.558	5621.22
926.867	5642.24
927.177	5545.52
927.487	5541.45
927.796	5484.5
928.106	5497.38
928.416	5493.09
928.725	5484.05
929.034	5471.62
929.344	5389.36
929.653	5434.11
929.962	5357.5
930.271	5347.56
930.581	5377.84
930.89	5294
931.199	5292.87
931.508	5277.73
931.817	5264.17
932.125	5225.53
932.434	5169.26
932.743	5127.22
933.051	5172.19
933.36	5132.87
933.669	5123.16
933.977	5094.46
934.286	5090.84
934.594	5050.39
934.902	5014.91
935.21	4992.99
935.519	5018.3
935.827	4965.87
936.135	4932.65
936.443	4967
936.751	4907.79
937.059	4905.08
937.367	4876.61
937.674	4859.89
937.982	4852.43
938.29	4806.55
938.597	4775.14
938.905	4755.26
939.213	4742.6
939.52	4705.99
939.827	4702.83
940.135	4703.05
940.442	4681.59
940.749	4654.47
941.056	4673
941.363	4603.4
941.67	4597.52
941.977	4558.88
942.284	4576.73
942.591	4534.92
942.898	4536.73
943.205	4503.74
943.511	4486.11
943.818	4498.09
944.125	4441.14
944.431	4436.62
944.738	4449.95
945.044	4371.99
945.35	4372.22
945.657	4394.14
945.963	4371.31
946.269	4349.84
946.575	4289.28
946.881	4315.72
947.187	4277.53
947.493	4236.4
947.799	4203.18
948.105	4222.84
948.41	4241.37
948.716	4196.85
949.022	4187.59
949.327	4191.43
949.633	4108.04
949.938	4143.52
950.244	4087.25
950.549	4063.98
950.854	4078.89
951.16	4037.76
951.465	4033.69
951.77	4033.47
952.075	3945.11
952.38	3986.69
952.685	3956.41
952.99	3929.29
953.294	3976.07
953.599	3927.26
953.904	3876.64
954.209	3856.3
954.513	3863.53
954.818	3856.75
955.122	3832.34
955.426	3859.01
955.731	3804.77
956.035	3760.71
956.339	3780.59
956.643	3767.49
956.948	3780.14
957.252	3708.28
957.556	3760.93
957.86	3689.3
958.163	3685.45
958.467	3700.59
958.771	3661.5
959.075	3648.84
959.378	3601.61
959.682	3620.37
959.985	3555.51
960.289	3570.88
960.592	3584.44
960.896	3523.65
961.199	3531.79
961.502	3551.22
961.805	3477.1
962.108	3467.15
962.411	3525.01
962.714	3452.92
963.017	3445.69
963.32	3434.84
963.623	3427.38
963.926	3399.36
964.228	3386.93
964.531	3357.33
964.833	3362.98
965.136	3350.32
965.438	3335.41
965.741	3305.8
966.043	3335.18
966.345	3292.24
966.648	3305.58
966.95	3310.77
967.252	3279.36
967.554	3290.66
967.856	3260.38
968.158	3191.68
968.46	3202.75
968.761	3140.84
969.063	3179.7
969.365	3149.2
969.666	3120.27
969.968	3138.35
970.269	3093.61
970.571	3071.01
970.872	3078.46
971.174	3088.41
971.475	3062.42
971.776	3054.06
972.077	3029.43
972.378	2996.88
972.679	3024.45
972.98	3011.8
973.281	2970.67
973.582	2977.22
973.883	2981.97
974.183	2938.81
974.484	2946.26
974.785	2916.66
975.085	2906.04
975.386	2915.08
975.686	2888.41
975.986	2894.29
976.287	2878.47
976.587	2845.48
976.887	2852.03
977.187	2853.84
977.487	2865.36
977.787	2817.91
978.087	2816.78
978.387	2779.26
978.687	2788.08
978.987	2740.39
979.286	2761.41
979.586	2745.37
979.885	2730.9
980.185	2718.47
980.484	2699.72
980.784	2673.28
981.083	2684.58
981.382	2681.41
981.682	2649.77
981.981	2650.9
982.28	2625.82
982.579	2582.66
982.878	2612.04
983.177	2588.99
983.475	2596.44
983.774	2578.36
984.073	2561.42
984.372	2554.41
984.67	2533.39
984.969	2529.55
985.267	2537.46
985.566	2527.52
985.864	2509.21
986.162	2505.6
986.461	2516.22
986.759	2476.9
987.057	2443.45
987.355	2442.77
987.653	2448.42
987.951	2467.18
988.249	2428.09
988.547	2415.66
988.844	2431.25
989.142	2360.97
989.44	2386.96
989.737	2378.6
990.035	2368.65
990.332	2334.3
990.63	2324.13
990.927	2332.72
991.224	2310.35
991.521	2338.82
991.819	2279.62
992.116	2312.83
992.413	2287.07
992.71	2249.33
993.006	2295.21
993.303	2234.87
993.6	2266.96
993.897	2215.89
994.193	2254.98
994.49	2244.81
994.787	2205.04
995.083	2160.75
995.379	2196
995.676	2191.48
995.972	2172.5
996.268	2125.95
996.565	2117.59
996.861	2148.55
997.157	2130.92
997.453	2128.66
997.749	2119.85
998.044	2074.87
998.34	2080.75
998.636	2027.87
998.932	2064.48
999.227	2064.25
999.523	2056.57
999.818	2039.62
1000.114	2042.56
1000.409	2018.83
1000.704	2008.89
1001	1989.23
1001.295	1965.27
1001.59	1946.52
1001.885	1952.17
1002.18	1941.32
1002.475	1929.12
1002.77	1959.85
1003.065	1901.77
1003.359	1921.43
1003.654	1894.77
1003.949	1909
1004.243	1904.03
1004.538	1870.36
1004.832	1864.03
1005.127	1832.62
1005.421	1833.3
1005.715	1852.96
1006.009	1838.04
1006.304	1830.59
1006.598	1794.88
1006.892	1810.47
1007.186	1794.43
1007.48	1796.24
1007.773	1765.73
1008.067	1770.48
1008.361	1740.65
1008.655	1783.13
1008.948	1734.54
1009.242	1719.86
1009.535	1705.62
1009.829	1707.2
1010.122	1684.15
1010.415	1671.95
1010.708	1651.84
1011.001	1651.61
1011.295	1642.8
1011.588	1655.22
1011.881	1629.91
1012.173	1597.15
1012.466	1624.04
1012.759	1593.76
1013.052	1579.52
1013.344	1599.63
1013.637	1589.69
1013.93	1572.06
1014.222	1543.59
1014.514	1556.7
1014.807	1521.9
1015.099	1525.74
1015.391	1543.36
1015.683	1531.84
1015.976	1523.48
1016.268	1523.93
1016.56	1481.22
1016.851	1472.86
1017.143	1452.97
1017.435	1452.74
1017.727	1462.46
1018.018	1462.01
1018.31	1445.51
1018.602	1455
1018.893	1411.16
1019.185	1414.78
1019.476	1415.68
1019.767	1403.03
1020.058	1402.12
1020.35	1394.21
1020.641	1361.45
1020.932	1388.11
1021.223	1362.8
1021.514	1349.02
1021.804	1360.32
1022.095	1335.23
1022.386	1324.39
1022.677	1322.13
1022.967	1319.41
1023.258	1299.98
1023.548	1306.76
1023.839	1259.3
1024.129	1301.79
1024.419	1229.02
1024.709	1251.62
1025	1262.24
1025.29	1230.15
1025.58	1227.21
1025.87	1237.61
1026.16	1218.63
1026.449	1218.63
1026.739	1191.28
1027.029	1215.46
1027.319	1224.95
1027.608	1215.69
1027.898	1182.69
1028.187	1159.64
1028.477	1171.17
1028.766	1157.38
1029.055	1165.97
1029.344	1121
1029.634	1136.37
1029.923	1109.7
1030.212	1103.83
1030.501	1106.99
1030.79	1106.09
1031.078	1099.76
1031.367	1094.11
1031.656	1112.19
1031.945	1072.64
1032.233	1067.9
1032.522	1069.25
1032.81	1049.59
1033.099	1061.12
1033.387	1044.17
1033.675	1037.84
1033.963	1026.09
1034.251	1015.02
1034.54	1016.37
1034.828	1012.76
1035.116	1000.33
1035.403	1029.7
1035.691	1006.65
1035.979	1001.91
1036.267	984.73
1036.554	980.89
1036.842	978.63
1037.129	972.76
1037.417	979.08
1037.704	933.21
1037.992	962.59
1038.279	929.82
1038.566	926.2
1038.853	926.2
1039.14	926.2
