Data from 350_FLMS001491_001.txt Node
Date: Thu Apr 19 15:44:19 BST 2018
User: hsy
Spectrometer: FLMS00149
Trigger mode: 0
Integration Time (sec): 1.000000E-2
Scans to average: 10
Electric dark correction enabled: true
Nonlinearity correction enabled: false
Boxcar width: 0
XAxis mode: Wavelengths
Number of Pixels in Spectrum: 2048
>>>>>Begin Spectral Data<<<<<
341.393	1.12
341.776	1.12
342.16	1.12
342.543	-68.49
342.927	-88.83
343.31	-73.46
343.693	-63.97
344.077	-85.66
344.46	-44.31
344.843	-63.97
345.226	-49.96
345.61	-22.61
345.993	-12.44
346.376	0.66
346.759	4.05
347.142	45.86
347.525	44.96
347.908	57.84
348.291	70.49
348.674	78.4
349.057	114.11
349.44	118.17
349.823	135.12
350.206	152.98
350.588	230.94
350.971	232.52
351.354	244.95
351.737	262.8
352.119	265.52
352.502	288.11
352.884	297.83
353.267	276.81
353.65	294.44
354.032	300.77
354.414	334.21
354.797	324.27
355.179	342.35
355.562	350.94
355.944	352.74
356.326	342.35
356.709	355.68
357.091	384.83
357.473	361.56
357.855	370.6
358.238	386.87
358.62	355
359.002	355.23
359.384	373.31
359.766	374.21
360.148	368.79
360.53	360.43
360.912	346.19
361.294	351.62
361.676	357.26
362.057	359.52
362.439	351.16
362.821	340.09
363.203	373.08
363.584	344.61
363.966	346.42
364.348	347.32
364.729	344.61
365.111	334.89
365.493	379.41
365.874	343.03
366.256	340.54
366.637	356.13
367.019	351.62
367.4	364.04
367.781	329.69
368.163	351.62
368.544	363.14
368.925	360.65
369.306	338.73
369.688	367.66
370.069	355.91
370.45	367.43
370.831	359.98
371.212	355.91
371.593	349.13
371.974	357.04
372.355	358.17
372.736	374.89
373.117	358.17
373.498	359.75
373.879	366.76
374.26	369.24
374.641	348.9
375.021	362.01
375.402	375.34
375.783	378.06
376.163	393.65
376.544	393.87
376.925	379.86
377.305	375.12
377.686	385.96
378.066	390.71
378.447	368.34
378.827	389.58
379.208	381.22
379.588	378.96
379.968	375.12
380.349	388.68
380.729	404.27
381.109	409.24
381.489	393.2
381.87	420.77
382.25	406.08
382.63	390.03
383.01	415.57
383.39	430.26
383.77	408.11
384.15	415.34
384.53	402.46
384.91	429.13
385.29	434.55
385.67	422.35
386.049	456.92
386.429	437.26
386.809	407.43
387.189	431.39
387.568	423.7
387.948	452.4
388.328	453.99
388.707	445.62
389.087	475.68
389.466	453.31
389.846	454.44
390.225	458.73
390.605	465.28
390.984	479.75
391.363	471.39
391.743	484.04
392.122	462.12
392.501	475.45
392.881	509.8
393.26	488.11
393.639	481.78
394.018	486.07
394.397	493.98
394.776	517.71
395.155	510.03
395.534	504.83
395.913	516.36
396.292	519.75
396.671	538.5
397.05	535.57
397.429	531.5
397.808	518.39
398.186	537.37
398.565	546.41
398.944	523.36
399.323	524.94
399.701	552.51
400.08	553.19
400.458	540.31
400.837	538.5
401.215	559.29
401.594	573.53
401.972	577.37
402.351	543.25
402.729	577.82
403.107	583.93
403.486	597.71
403.864	563.36
404.242	582.8
404.62	584.38
404.999	580.31
405.377	583.02
405.755	611.72
406.133	605.62
406.511	612.17
406.889	611.27
407.267	633.42
407.645	616.01
408.023	678.39
408.401	664.6
408.779	657.37
409.156	677.26
409.534	657.6
409.912	688.33
410.29	680.42
410.667	701.44
411.045	712.28
411.422	694.2
411.8	694.2
412.178	732.85
412.555	715.9
412.933	743.47
413.31	728.55
413.687	768.78
414.065	765.62
414.442	732.4
414.819	781.89
415.197	768.55
415.574	811.26
415.951	800.87
416.328	793.64
416.705	787.99
417.082	795.9
417.46	799.06
417.837	810.36
418.214	822.56
418.591	827.31
418.967	788.89
419.344	832.73
419.721	854.2
420.098	829.57
420.475	824.82
420.852	873.41
421.228	873.41
421.605	884.48
421.982	865.73
422.358	873.41
422.735	906.18
423.111	892.84
423.488	923.8
423.864	938.27
424.241	930.81
424.617	896.69
424.994	938.72
425.37	952.05
425.746	956.57
426.123	966.74
426.499	962.45
426.875	960.41
427.251	994.31
427.627	1005.16
428.003	1020.98
428.379	1023.46
428.756	1027.76
429.132	1047.64
429.507	1069.56
429.883	1070.01
430.259	1073.18
430.635	1098.04
431.011	1101.65
431.387	1128.77
431.763	1116.34
432.138	1154.53
432.514	1132.39
432.89	1192.04
433.265	1155.89
433.641	1208.77
434.016	1219.39
434.392	1197.47
434.767	1229.56
435.143	1241.99
435.518	1263
435.894	1253.29
436.269	1276.56
436.644	1285.83
437.02	1310.01
437.395	1322.21
437.77	1325.37
438.145	1362.66
438.52	1340.06
438.895	1332.15
439.271	1335.77
439.646	1393.62
440.021	1389.78
440.395	1408.08
440.77	1400.4
441.145	1377.58
441.52	1432.49
441.895	1435.2
442.27	1431.36
442.645	1430.23
443.019	1460.06
443.394	1487.18
443.769	1463.68
444.143	1471.13
444.518	1486.5
444.892	1493.73
445.267	1500.06
445.641	1497.57
446.016	1528.53
446.39	1534.41
446.764	1533.96
447.139	1510.23
447.513	1561.07
447.887	1543.45
448.262	1569.66
448.636	1550.91
449.01	1583.9
449.384	1606.05
449.758	1634.52
450.132	1639.04
450.506	1620.51
450.88	1666.61
451.254	1631.36
451.628	1674.97
452.002	1675.2
452.376	1711.13
452.75	1741.86
453.123	1749.54
453.497	1760.17
453.871	1773.95
454.244	1812.59
454.618	1833.84
454.992	1833.61
455.365	1840.84
455.739	1905.25
456.112	1882.2
456.486	1908.18
456.859	1952.93
457.232	1973.72
457.606	1998.58
457.979	2004.23
458.352	2053.04
458.725	2060.27
459.099	2103.21
459.472	2077.9
459.845	2130.1
460.218	2125.35
460.591	2198.8
460.964	2199.02
461.337	2241.73
461.71	2254.84
462.083	2295.29
462.456	2323.09
462.829	2269.08
463.201	2372.58
463.574	2341.17
463.947	2411.45
464.32	2412.13
464.692	2431.33
465.065	2471.33
465.438	2507.94
465.81	2501.39
466.183	2535.51
466.555	2610.54
466.928	2635.85
467.3	2649.63
467.672	2643.31
468.045	2737.54
468.417	2715.62
468.789	2768.27
469.161	2773.25
469.534	2819.35
469.906	2874.26
470.278	2879.23
470.65	2931.66
471.022	2949.51
471.394	3050.08
471.766	3049.17
472.138	3089.85
472.51	3130.3
472.882	3182.28
473.253	3195.83
473.625	3255.72
473.997	3313.57
474.369	3351.08
474.74	3378.65
475.112	3449.39
475.484	3461.14
475.855	3561.47
476.227	3568.48
476.598	3654.35
476.97	3718.31
477.341	3784.07
477.713	3815.03
478.084	3895.93
478.455	3928.47
478.827	4028.35
479.198	4079.88
479.569	4097.28
479.94	4219.31
480.311	4252.98
480.682	4346.99
481.053	4480.32
481.424	4509.7
481.795	4552.18
482.166	4653.87
482.537	4711.27
482.908	4777.94
483.279	4873.08
483.65	4956.24
484.021	5027.65
484.391	5131.6
484.762	5185.39
485.133	5244.82
485.503	5308.55
485.874	5400.52
486.244	5474.87
486.615	5610.23
486.985	5720.74
487.356	5751.47
487.726	5844.35
488.097	6004.35
488.467	6009.55
488.837	6172.03
489.207	6272.36
489.578	6365.24
489.948	6383.77
490.318	6528.85
490.688	6528.85
491.058	6699.02
491.428	6742.18
491.798	6833.03
492.168	6970.2
492.538	7035.96
492.908	7113.25
493.278	7220.59
493.648	7246.8
494.017	7373.13
494.387	7536.28
494.757	7546.45
495.126	7617.86
495.496	7630.75
495.866	7791.19
496.235	7854.24
496.605	8025.31
496.974	8065.08
497.344	8030.74
497.713	8197.51
498.082	8262.37
498.452	8323.83
498.821	8417.62
499.19	8465.3
499.559	8616.03
499.928	8664.39
500.298	8726.76
500.667	8821.67
501.036	8828
501.405	8969.47
501.774	8952.97
502.143	9048.56
502.512	9181.21
502.88	9199.52
503.249	9295.11
503.618	9363.13
503.987	9413.98
504.356	9535.33
504.724	9609.45
505.093	9606.29
505.462	9704.14
505.83	9773.51
506.199	9865.04
506.567	10030.91
506.936	10035.2
507.304	10159.49
507.672	10233.39
508.041	10314.97
508.409	10359.94
508.777	10546.83
509.145	10587.05
509.514	10576.66
509.882	10693.49
510.25	10739.82
510.618	10899.13
510.986	10858.91
511.354	10977.32
511.722	11154.95
512.09	11236.3
512.458	11275.62
512.826	11375.28
513.193	11411.21
513.561	11534.15
513.929	11548.38
514.297	11686.01
514.664	11784.76
515.032	11897.75
515.4	12038.54
515.767	12137.29
516.135	12204.18
516.502	12067.01
516.869	12367.12
517.237	12400.79
517.604	12406.89
517.972	12608.92
518.339	12728.46
518.706	12754.9
519.073	12819.76
519.44	12832.64
519.808	13031.73
520.175	13019.98
520.542	13199.41
520.909	13332.52
521.276	13484.15
521.643	13521.21
522.009	13669
522.376	13756.23
522.743	13812.5
523.11	14113.29
523.477	14180.18
523.843	14353.28
524.21	14424.24
524.577	14584.69
524.943	14634.63
525.31	14657
525.676	14861.29
526.043	14981.06
526.409	15084.56
526.776	15217.44
527.142	15330.66
527.508	15473.93
527.874	15572.01
528.241	15674.83
528.607	15827.82
528.973	15910.98
529.339	15950.07
529.705	16068.94
530.071	16318.2
530.437	16356.39
530.803	16381.93
531.169	16600.45
531.535	16609.49
531.901	16785.53
532.267	16797.51
532.632	16950.73
532.998	17033.66
533.364	17090.84
533.73	17200.21
534.095	17309.81
534.461	17295.12
534.826	17389.13
535.192	17512.29
535.557	17658.28
535.923	17603.14
536.288	17794.77
536.653	17866.41
537.019	17788.67
537.384	17898.95
537.749	17963.81
538.114	18010.59
538.479	18125.38
538.845	18146.4
539.21	18181.2
539.575	18227.98
539.94	18205.38
540.305	18392.95
540.67	18416.9
541.034	18513.17
541.399	18599.5
541.764	18542.55
542.129	18683.11
542.494	18723.79
542.858	18848.98
543.223	18716.56
543.587	18851.47
543.952	18884.91
544.316	18998.58
544.681	18917.45
545.045	19097.79
545.41	19053.5
545.774	19110.44
546.138	19184.34
546.503	19335.75
546.867	19371.45
547.231	19381.62
547.595	19422.98
547.959	19549.3
548.324	19615.74
548.688	19551.34
549.052	19742.07
549.416	19648.06
549.779	19638.57
550.143	19737.09
550.507	19966.24
550.871	20083.75
551.235	20108.61
551.599	20210.98
551.962	20312.67
552.326	20293.01
552.689	20376.63
553.053	20225.22
553.417	20443.29
553.78	20599.9
554.143	20662.49
554.507	20701.36
554.87	20705.88
555.234	20968.93
555.597	20777.07
555.96	20974.35
556.323	21088.47
556.686	20993.56
557.05	21222.03
557.413	21256.38
557.776	21289.6
558.139	21445.98
558.502	21576.14
558.865	21698.17
559.228	21771.84
559.59	21828.56
559.953	21846.19
560.316	22115.79
560.679	22114.66
561.041	22180.19
561.404	22362.34
561.767	22528.43
562.129	22587.41
562.492	22594.42
562.854	22768.65
563.217	22819.05
563.579	22852.72
563.941	23087.51
564.304	23215.19
564.666	23403.44
565.028	23277.34
565.39	23484.11
565.753	23664.67
566.115	23745.8
566.477	23856.99
566.839	23891.56
567.201	24156.86
567.563	24182.85
567.925	24293.58
568.287	24428.95
568.648	24427.14
569.01	24575.84
569.372	24919.56
569.734	24838.65
570.095	25006.56
570.457	25132.88
570.819	25160.45
571.18	25285.2
571.542	25395.48
571.903	25347.12
572.265	25415.36
572.626	25610.16
572.987	25582.82
573.349	25760.44
573.71	25999.98
574.071	26052.18
574.432	26295.11
574.794	26313.64
575.155	26425.51
575.516	26457.37
575.877	26484.26
576.238	26616.01
576.599	26599.96
576.96	26592.73
577.32	26707.53
577.681	26729.68
578.042	26990.69
578.403	26965.83
578.763	27078.82
579.124	26937.58
579.485	27197.69
579.845	27228.87
580.206	27146.62
580.566	27207.18
580.927	27251.25
581.287	27461.41
581.648	27256.22
582.008	27379.6
582.368	27418.7
582.728	27400.62
583.089	27405.59
583.449	27581.41
583.809	27525.59
584.169	27625.02
584.529	27437.46
584.889	27697.11
585.249	27453.73
585.609	27399.72
585.969	27574.4
586.329	27448.3
586.688	27646.72
587.048	27445.14
587.408	27490.11
587.768	27425.48
588.127	27439.72
588.487	27540.28
588.846	27651.69
589.206	27340.74
589.565	27461.41
589.925	27593.16
590.284	27422.99
590.643	27499.38
591.003	27524.23
591.362	27731.91
591.721	27609.66
592.08	27528.75
592.44	27616.43
592.799	27535.99
593.158	27647.39
593.517	27545.02
593.876	27565.81
594.235	27457.57
594.593	27521.97
594.952	27607.62
595.311	27541.86
595.67	27604.23
596.029	27652.37
596.387	27622.99
596.746	27762.87
597.104	27537.57
597.463	27608.75
597.822	27689.2
598.18	27517.68
598.538	27582.31
598.897	27829.31
599.255	27595.19
599.613	27964.22
599.972	27669.09
600.33	27706.38
600.688	27627.96
601.046	27715.87
601.404	27903.21
601.762	27750.44
602.12	27829.54
602.478	27801.51
602.836	27931.91
603.194	27722.19
603.552	27775.75
603.91	27757.67
604.268	27895.3
604.625	27861.63
604.983	28033.83
605.341	27862.76
605.698	27964.67
606.056	28069.08
606.413	28072.92
606.771	28168.06
607.128	28101.39
607.485	27984.56
607.843	28087.38
608.2	28147.27
608.557	28158.12
608.914	28212.58
609.272	28272.69
609.629	28348.39
609.986	28457.09
610.343	28421.16
610.7	28574.15
611.057	28486.47
611.414	28426.13
611.771	28537.09
612.127	28640.36
612.484	28562.62
612.841	28692.34
613.198	28620.93
613.554	28556.75
613.911	28833.35
614.267	28785.44
614.624	28738.44
614.98	28818.21
615.337	29000.81
615.693	29111.99
616.05	28960.13
616.406	29092.78
616.762	28867.25
617.118	28999.9
617.475	29028.15
617.831	29121.25
618.187	29256.62
618.543	29303.62
618.899	29419.1
619.255	29231.53
619.611	29137.52
619.967	29367.8
620.323	29473.34
620.678	29322.6
621.034	29297.97
621.39	29405.09
621.746	29313.34
622.101	29587.68
622.457	29379.33
622.812	29498.42
623.168	29560.34
623.523	29522.37
623.879	29616.61
624.234	29484.86
624.589	29656.61
624.945	29649.6
625.3	29586.33
625.655	29683.05
626.01	29686.66
626.365	29710.39
626.72	29583.16
627.075	29610.51
627.43	29611.41
627.785	29544.97
628.14	29575.93
628.495	29694.57
628.85	29659.77
629.205	29537.06
629.559	29624.52
629.914	29546.55
630.269	29544.29
630.623	29361.02
630.978	29464.07
631.332	29534.58
631.687	29491.19
632.041	29577.29
632.396	29505.88
632.75	29432.66
633.104	29406.67
633.459	29279.67
633.813	29280.35
634.167	29191.99
634.521	29230.18
634.875	29219.1
635.229	29229.27
635.583	29036.06
635.937	28964.2
636.291	28971.65
636.645	28902.5
636.999	28851.88
637.352	28992.9
637.706	28845.78
638.06	28959.9
638.413	28760.13
638.767	28796.52
639.121	28766.24
639.474	28721.26
639.828	28700.7
640.181	28676.29
640.534	28665.9
640.888	28416.41
641.241	28516.3
641.594	28426.58
641.947	28498.45
642.301	28389.3
642.654	28406.47
643.007	28332.8
643.36	28283.99
643.713	28375.06
644.066	28480.82
644.419	28120.38
644.771	27883.55
645.124	27546.61
645.477	27710.9
645.83	27500.96
646.182	27436.33
646.535	27480.62
646.888	27490.34
647.24	27534.86
647.593	27686.72
647.945	27510.45
648.298	27469.09
648.65	27199.95
649.002	26971.71
649.355	27012.16
649.707	26934.42
650.059	26722.22
650.411	27197.91
650.763	27357.91
651.115	27894.17
651.467	27758.8
651.819	27659.37
652.171	27641.07
652.523	27582.09
652.875	27738.69
653.227	27522.65
653.578	27732.59
653.93	27637.9
654.282	27506.61
654.633	27507.96
654.985	27585.93
655.337	27599.49
655.688	27520.62
656.039	27565.36
656.391	27164.7
656.742	27430.9
657.094	27331.47
657.445	27472.71
657.796	27371.24
658.147	27441.3
658.498	27470.68
658.849	27428.64
659.2	27417.8
659.551	27342.77
659.902	27501.86
660.253	27356.33
660.604	27394.97
660.955	27277.69
661.306	27436.78
661.656	27314.75
662.007	27376.89
662.358	27382.09
662.708	27420.96
663.059	27287.4
663.409	27206.73
663.76	27351.58
664.11	27443.56
664.461	27459.15
664.811	27394.52
665.161	27374.63
665.511	27268.2
665.862	27430.9
666.212	27399.94
666.562	27405.59
666.912	27193.62
667.262	27445.37
667.612	27336.44
667.962	27256.9
668.312	27157.69
668.662	27360.4
669.011	27364.46
669.361	27343
669.711	27441.52
670.06	27163.79
670.41	27134.87
670.76	27247.86
671.109	27363.56
671.459	27164.47
671.808	27226.84
672.157	27304.13
672.507	27119.05
672.856	27124.24
673.205	27169.89
673.554	27313.62
673.904	27132.61
674.253	27399.27
674.602	27104.13
674.951	26798.83
675.3	26757.02
675.649	27132.61
675.998	27056
676.346	27166.5
676.695	27132.61
677.044	27015.55
677.393	26989.11
677.741	27138.48
678.09	27016.68
678.438	26867.08
678.787	26998.82
679.135	27034.76
679.484	26792.95
679.832	26976.45
680.181	26932.16
680.529	26820.3
680.877	26729
681.225	26627.99
681.573	26953.85
681.922	26766.74
682.27	26549.8
682.618	26587.31
682.966	26571.72
683.314	26583.92
683.661	26558.16
684.009	26484.49
684.357	26399.52
684.705	26323.36
685.053	26307.54
685.4	26261.22
685.748	26199.97
686.095	26132.41
686.443	25974.67
686.79	25927.67
687.138	26027.1
687.485	26017.83
687.832	25910.49
688.18	25854.22
688.527	25676.15
688.874	25677.28
689.221	25652.19
689.568	25586.21
689.915	25463.5
690.262	25377.17
690.609	25502.59
690.956	25351.18
691.303	25335.36
691.65	25143.05
691.997	25190.96
692.344	25005.88
692.69	24932.66
693.037	24923.4
693.383	24764.31
693.73	24849.5
694.077	24669.85
694.423	24630.75
694.769	24556.85
695.116	24534.03
695.462	24458.33
695.808	24363.19
696.155	24493.58
696.501	24230.08
696.847	24264.43
697.193	24103.98
697.539	24026.7
697.885	23853.37
698.231	23906.93
698.577	23858.79
698.923	23803.65
699.269	23641.4
699.614	23433.04
699.96	23479.82
700.306	23539.71
700.651	23397.56
700.997	23245.48
701.342	23297.68
701.688	23228.53
702.033	22940.85
702.379	23088.19
702.724	22849.55
703.069	22988.76
703.415	22705.83
703.76	22700.41
704.105	22703.8
704.45	22528.66
704.795	22510.81
705.14	22441.66
705.485	22454.08
705.83	22191.27
706.175	22323.47
706.52	22203.02
706.865	22189.68
707.209	22150.14
707.554	21977.26
707.899	22056.13
708.243	21962.35
708.588	21959.18
708.932	21831.28
709.277	21848.22
709.621	21723.48
709.966	21690.26
710.31	21704.73
710.654	21547.22
710.998	21614.56
711.342	21490.72
711.687	21495.47
712.031	21445.98
712.375	21335.02
712.719	21254.79
713.063	21282.36
713.407	21500.21
713.75	21179.09
714.094	21282.14
714.438	21047.12
714.782	21203.04
715.125	20871.3
715.469	21105.42
715.812	20941.36
716.156	20917.63
716.499	20810.74
716.843	20890.74
717.186	20794.02
717.53	20968.25
717.873	20891.64
718.216	20855.26
718.559	20716.73
718.902	20554.02
719.246	20682.38
719.589	20542.95
719.932	20417.53
720.275	20580.24
720.617	20479.67
720.96	20409.39
721.303	20545.43
721.646	20483.97
721.989	20364.2
722.331	20480.13
722.674	20393.35
723.016	20418.66
723.359	20302.95
723.701	20475.38
724.044	20275.38
724.386	20211.66
724.729	20327.59
725.071	20274.26
725.413	20175.05
725.755	20225.89
726.097	20136.41
726.439	20024.54
726.782	20032
727.124	20208.27
727.465	20092.79
727.807	19916.98
728.149	20090.08
728.491	19963.53
728.833	19965.79
729.175	19983.64
729.516	19974.83
729.858	19954.72
730.199	19985.9
730.541	19928.95
730.882	19816.19
731.224	19909.07
731.565	19865.9
731.906	19893.02
732.248	19833.36
732.589	19781.16
732.93	19743.42
733.271	19811.67
733.612	19756.98
733.953	19801.73
734.294	19624.55
734.635	19717.66
734.976	19886.24
735.317	19697.1
735.658	19752.23
735.999	19613.71
736.339	19742.07
736.68	19583.65
737.021	19679.69
737.361	19554.27
737.702	19847.83
738.042	19636.08
738.383	19714.27
738.723	19772.35
739.063	19717.89
739.404	19774.16
739.744	19648.73
740.084	19628.4
740.424	19730.31
740.764	19721.28
741.104	19774.38
741.444	19648.96
741.784	19641.73
742.124	19735.74
742.464	19810.76
742.804	19666.81
743.143	19683.99
743.483	19731.22
743.823	19658.68
744.162	19762.4
744.502	19814.38
744.841	19712.91
745.181	19792.01
745.52	19754.04
745.86	19757.43
746.199	19827.04
746.538	19888.05
746.877	19904.1
747.216	19990.87
747.556	20014.6
747.895	20038.56
748.234	20027.93
748.573	19942.74
748.911	19931.44
749.25	20043.53
749.589	20032
749.928	20104.54
750.267	20140.47
750.605	20005.34
750.944	20055.73
751.283	20079.23
751.621	20149.51
751.96	20067.48
752.298	20112.23
752.636	20176.63
752.975	20136.86
753.313	20163.07
753.651	20311.77
753.989	20273.35
754.327	20283.29
754.666	20189.29
755.004	20193.58
755.342	20248.49
755.679	20315.61
756.017	20243.3
756.355	20408.26
756.693	20306.8
757.031	20583.4
757.368	20312.9
757.706	20341.15
758.044	20375.72
758.381	20437.19
758.719	20399
759.056	20470.18
759.394	20370.75
759.731	20370.3
760.068	20285.33
760.405	20380.01
760.743	20337.08
761.08	20370.75
761.417	20323.75
761.754	20334.14
762.091	20366.68
762.428	20276.06
762.765	20246.46
763.102	20168.04
763.438	20195.39
763.775	20168.95
764.112	20104.32
764.449	20253.46
764.785	20222.5
765.122	20128.04
765.458	19919.01
765.795	20015.5
766.131	20065.22
766.467	19955.85
766.804	19811.22
767.14	19754.04
767.476	19801.27
767.812	19847.15
768.148	19803.76
768.485	19769.64
768.821	19687.15
769.157	19619.36
769.492	19550.43
769.828	19537.55
770.164	19353.83
770.5	19424.11
770.836	19439.93
771.171	19409.65
771.507	19288.29
771.842	19109.99
772.178	19185.47
772.513	19179.59
772.849	19041.07
773.184	19012.59
773.519	19018.92
773.855	18807.63
774.19	18839.94
774.525	18760.62
774.86	18773.5
775.195	18789.55
775.53	18616.22
775.865	18447.64
776.2	18578.25
776.535	18387.52
776.87	18351.82
777.205	18299.39
777.539	18167.19
777.874	18318.15
778.209	18061.21
778.543	18129.68
778.878	17943.02
779.212	17986.63
779.547	17871.83
779.881	17845.39
780.215	17823.7
780.55	17744.15
780.884	17594.1
781.218	17553.87
781.552	17652.63
781.886	17596.81
782.22	17394.33
782.554	17308.46
782.888	17251.96
783.222	17206.54
783.556	17118.63
783.889	17024.85
784.223	16980.1
784.557	16957.05
784.89	17044.51
785.224	16837.96
785.557	16731.07
785.891	16720.22
786.224	16731.98
786.558	16640.68
786.891	16535.6
787.224	16474.81
787.557	16442.49
787.891	16425.77
788.224	16330.18
788.557	16324.3
788.89	16299.22
789.223	16128.6
789.556	16163.4
789.888	16135.15
790.221	16041.82
790.554	15863.52
790.887	15928.38
791.219	15838.21
791.552	15781.49
791.884	15723.87
792.217	15603.64
792.549	15666.01
792.882	15563.64
793.214	15468.96
793.546	15510.09
793.879	15478.67
794.211	15349.19
794.543	15359.36
794.875	15360.94
795.207	15188.06
795.539	15152.81
795.871	15158.01
796.203	15056.99
796.535	15000.95
796.867	15080.49
797.198	14887.05
797.53	14968.86
797.862	14801.4
798.193	14819.03
798.525	14747.17
798.856	14745.36
799.188	14644.12
799.519	14645.25
799.85	14533.39
800.182	14527.06
800.513	14533.16
800.844	14379.04
801.175	14452.26
801.506	14481.64
801.837	14286.16
802.168	14329.55
802.499	14356.22
802.83	14205.04
803.161	14165.72
803.491	14163.91
803.822	14191.93
804.153	14047.07
804.483	14014.76
804.814	13979.05
805.145	13921.88
805.475	13856.34
805.805	14040.29
806.136	13868.77
806.466	13843.01
806.796	13809.34
807.126	13684.82
807.457	13669.91
807.787	13738.61
808.117	13682.79
808.447	13586.52
808.777	13646.86
809.107	13467.65
809.436	13491.16
809.766	13422.46
810.096	13444.6
810.426	13405.74
810.755	13452.29
811.085	13334.55
811.414	13355.57
811.744	13273.08
812.073	13315.12
812.403	13220.2
812.732	13099.3
813.061	13197.38
813.39	13096.14
813.719	13063.15
814.049	13140.66
814.378	13090.04
814.707	12974.79
815.036	12941.57
815.365	12825.41
815.693	12804.62
816.022	12834.68
816.351	12741.12
816.68	12840.1
817.008	12893.66
817.337	12681.46
817.665	12728.92
817.994	12746.09
818.322	12724.62
818.651	12665.19
818.979	12592.65
819.307	12665.19
819.636	12598.52
819.964	12470.17
820.292	12584.06
820.62	12583.16
820.948	12572.99
821.276	12555.14
821.604	12557.85
821.932	12571.86
822.259	12511.3
822.587	12452.09
822.915	12511.3
823.243	12469.26
823.57	12491.41
823.898	12490.5
824.225	12466.1
824.553	12471.3
824.88	12430.62
825.207	12549.71
825.535	12458.87
825.862	12569.82
826.189	12547
826.516	12490.05
826.843	12575.93
827.17	12577.51
827.497	12566.89
827.824	12566.66
828.151	12640.11
828.478	12534.12
828.805	12573.89
829.131	12469.71
829.458	12623.61
829.785	12474.91
830.111	12522.37
830.438	12648.92
830.764	12574.8
831.09	12529.6
831.417	12407.57
831.743	12553.78
832.069	12430.39
832.395	12380.45
832.722	12467
833.048	12515.59
833.374	12548.13
833.7	12508.36
834.026	12495.02
834.351	12481.47
834.677	12520.56
835.003	12538.87
835.329	12439.88
835.654	12426.33
835.98	12337.06
836.306	12386.78
836.631	12306.33
836.956	12451.86
837.282	12431.3
837.607	12368.7
837.932	12299.55
838.258	12352.43
838.583	12372.32
838.908	12340.45
839.233	12310.17
839.558	12285.09
839.883	12224.52
840.208	12201.7
840.533	12159.89
840.858	12236.05
841.182	12125.77
841.507	12213.45
841.832	12055.49
842.156	12107.01
842.481	12058.65
842.805	11971.2
843.13	11952.21
843.454	11913.8
843.778	11897.98
844.103	11914.93
844.427	11857.3
844.751	11820.92
845.075	11873.8
845.399	11797.64
845.723	11773.46
846.047	11833.35
846.371	11652.56
846.695	11722.39
847.019	11603.75
847.343	11642.84
847.666	11499.12
847.99	11541.38
848.313	11455.73
848.637	11457.31
848.96	11399.91
849.284	11323.98
849.607	11306.36
849.931	11305.9
850.254	11210.54
850.577	11116.08
850.9	11067.49
851.223	11053.25
851.546	11032.69
851.869	10961.05
852.192	10970.32
852.515	10822.98
852.838	10820.72
853.161	10793.37
853.483	10726.71
853.806	10754.73
854.129	10705.47
854.451	10657.78
854.774	10635.41
855.096	10586.15
855.419	10576.66
855.741	10509.54
856.063	10544.12
856.385	10434.06
856.708	10446.49
857.03	10356.55
857.352	10383.67
857.674	10310.9
857.996	10345.02
858.318	10177.57
858.64	10246.04
858.961	10248.3
859.283	10194.97
859.605	10179.83
859.926	10181.87
860.248	10178.25
860.57	10039.72
860.891	10117.01
861.212	10117.23
861.534	9997.01
861.855	9982.77
862.176	10013.51
862.498	10008.76
862.819	10011.93
863.14	9885.15
863.461	10000.17
863.782	9865.04
864.103	9930.8
864.424	9805.83
864.745	9892.83
865.065	9812.16
865.386	9768.54
865.707	9821.2
866.027	9844.02
866.348	9793.63
866.668	9766.96
866.989	9811.03
867.309	9706.62
867.63	9707.08
867.95	9738.94
868.27	9605.38
868.59	9725.38
868.91	9670.92
869.23	9605.16
869.55	9587.76
869.87	9550.02
870.19	9525.84
870.51	9510.47
870.83	9534.88
871.15	9536.68
871.469	9552.5
871.789	9595.21
872.109	9494.88
872.428	9473.64
872.748	9481.77
873.067	9435.67
873.386	9480.41
873.706	9439.51
874.025	9343.24
874.344	9364.26
874.663	9402.22
874.982	9305.96
875.301	9364.94
875.62	9307.76
875.939	9259.86
876.258	9294.66
876.577	9264.83
876.896	9281.1
877.214	9243.13
877.533	9207.2
877.852	9249.01
878.17	9191.38
878.489	9236.13
878.807	9224.6
879.125	9134.66
879.444	9139.18
879.762	9094.66
880.08	9104.61
880.398	9091.95
880.716	9075.45
881.034	9092.18
881.352	9062.57
881.67	9013.53
881.988	9017.6
882.306	8999.52
882.624	9026.87
882.941	8878.17
883.259	8896.02
883.577	8890.83
883.894	8919.3
884.212	8858.74
884.529	8794.78
884.846	8805.86
885.164	8833.2
885.481	8790.04
885.798	8823.03
886.115	8649.25
886.432	8702.58
886.75	8679.53
887.067	8669.14
887.383	8589.14
887.7	8691.28
888.017	8614.45
888.334	8578.97
888.651	8597.95
888.967	8526.99
889.284	8524.96
889.6	8528.12
889.917	8544.85
890.233	8484.06
890.55	8523.83
890.866	8405.87
891.182	8440.89
891.498	8404.74
891.815	8388.24
892.131	8422.82
892.447	8341.01
892.763	8338.07
893.079	8271.18
893.395	8297.17
893.71	8236.15
894.026	8172.2
894.342	8186.21
894.657	8140.56
894.973	8178.08
895.289	8129.94
895.604	8105.54
895.92	8062.15
896.235	8076.16
896.55	8030.06
896.865	7987.57
897.181	7944.18
897.496	7977.18
897.811	7922.04
898.126	7930.62
898.441	7851.08
898.756	7859.44
899.071	7784.41
899.386	7812.44
899.7	7680.46
900.015	7688.82
900.33	7665.55
900.644	7639.11
900.959	7645.21
901.273	7609.28
901.588	7586.23
901.902	7620.8
902.216	7542.84
902.531	7552.78
902.845	7474.59
903.159	7361.37
903.473	7397.08
903.787	7410.19
904.101	7324.77
904.415	7422.84
904.729	7289.51
905.042	7304.43
905.356	7288.16
905.67	7252.22
905.984	7219.68
906.297	7190.31
906.611	7139.91
906.924	7129.74
907.237	7138.56
907.551	7107.6
907.864	7051.55
908.177	7039.8
908.491	6987.6
908.804	7003.42
909.117	6970.42
909.43	6897.66
909.743	6915.06
910.056	6906.92
910.368	6825.12
910.681	6781.73
910.994	6775.17
911.307	6758
911.619	6667.16
911.932	6788.73
912.244	6606.59
912.557	6656.99
912.869	6588.29
913.181	6588.29
913.494	6574.73
913.806	6513.03
914.118	6485.69
914.43	6474.39
914.742	6430.33
915.054	6440.95
915.366	6419.7
915.678	6399.82
915.99	6378.58
916.302	6365.24
916.613	6274.17
916.925	6353.72
917.236	6363.66
917.548	6253.61
917.859	6219.94
918.171	6232.59
918.482	6096.1
918.794	6124.8
919.105	6116.66
919.416	6133.61
919.727	6085.7
920.038	6082.54
920.349	6029.43
920.66	5985.37
920.971	6018.13
921.282	6032.14
921.593	5928.19
921.903	5888.42
922.214	5862.66
922.525	5845.26
922.835	5796.22
923.146	5861.53
923.456	5763.22
923.767	5788.08
924.077	5790.12
924.387	5758.48
924.697	5735.65
925.008	5744.24
925.318	5662.21
925.628	5745.37
925.938	5674.86
926.248	5631.25
926.558	5554.64
926.867	5590.8
927.177	5499.95
927.487	5527.75
927.796	5462.89
928.106	5417.02
928.416	5413.18
928.725	5459.5
929.034	5346.51
929.344	5392.39
929.653	5373.63
929.962	5301.09
930.271	5296.12
930.581	5293.63
930.89	5307.19
931.199	5214.76
931.508	5234.42
931.817	5180.41
932.125	5164.82
932.434	5150.13
932.743	5152.39
933.051	5100.87
933.36	5129.57
933.669	5080.76
933.977	5018.61
934.286	5042.57
934.594	5024.26
934.902	5012.28
935.21	4953.53
935.519	4920.53
935.827	4934.32
936.135	4901.33
936.443	4856.13
936.751	4844.15
937.059	4864.26
937.367	4820.42
937.674	4783.14
937.982	4776.13
938.29	4763.48
938.597	4730.26
938.905	4717.15
939.213	4704.49
939.52	4710.6
939.827	4702.24
940.135	4625.85
940.442	4670.6
940.749	4702.46
941.056	4657.94
941.363	4581.79
941.67	4574.1
941.977	4580.88
942.284	4545.4
942.591	4502.47
942.898	4549.02
943.205	4506.99
943.511	4440.1
943.818	4433.09
944.125	4411.4
944.431	4424.05
944.738	4368.46
945.044	4350.38
945.35	4343.15
945.657	4345.63
945.963	4305.86
946.269	4306.77
946.575	4320.55
946.881	4275.81
947.187	4284.17
947.493	4232.64
947.799	4241.91
948.105	4181.12
948.41	4196.26
948.716	4149.03
949.022	4132.76
949.327	4151.74
949.633	4075.81
949.938	4097.73
950.244	4072.87
950.549	4025.19
950.854	4021.58
951.16	4059.54
951.465	3958.98
951.77	4004.63
952.075	3996.04
952.38	3940.22
952.685	3928.47
952.99	3886.89
953.294	3901.35
953.599	3876.49
953.904	3866.78
954.209	3843.5
954.513	3831.07
954.818	3820.68
955.122	3849.38
955.426	3776.16
955.731	3765.54
956.035	3739.55
956.339	3775.93
956.643	3768.02
956.948	3715.59
957.252	3665.65
957.556	3690.28
957.86	3638.76
958.163	3654.13
958.467	3640.57
958.771	3657.74
959.075	3592.66
959.378	3594.02
959.682	3584.52
959.985	3533.68
960.289	3540.91
960.592	3541.14
960.896	3528.25
961.199	3533.45
961.502	3511.98
961.805	3477.63
962.108	3466.11
962.411	3442.83
962.714	3446.9
963.017	3411.42
963.32	3384.76
963.623	3399.44
963.926	3385.43
964.228	3336.17
964.531	3352.44
964.833	3330.52
965.136	3283.74
965.438	3276.06
965.741	3253.46
966.043	3253.91
966.345	3261.14
966.648	3241.03
966.95	3217.98
967.252	3235.38
967.554	3178.89
967.856	3173.24
968.158	3163.74
968.46	3150.86
968.761	3130.53
969.063	3148.6
969.365	3117.42
969.666	3083.97
969.968	3090.07
970.269	3080.36
970.571	3065.67
970.872	3076.06
971.174	3025.22
971.475	3054.37
971.776	3016.63
972.077	3017.99
972.378	2973.47
972.679	2991.32
972.98	2957.87
973.281	2981.6
973.582	2948.16
973.883	2901.38
974.183	2902.06
974.484	2915.39
974.785	2941.83
975.085	2861.61
975.386	2839.23
975.686	2850.53
975.986	2861.15
976.287	2835.84
976.587	2817.54
976.887	2811.89
977.187	2809.86
977.487	2798.33
977.787	2786.58
978.087	2755.39
978.387	2754.26
978.687	2713.36
978.987	2721.04
979.286	2685.34
979.586	2712.91
979.885	2643.31
980.185	2653.02
980.484	2659.12
980.784	2665.9
981.083	2615.51
981.382	2628.62
981.682	2643.98
981.981	2617.77
982.28	2619.35
982.579	2584.1
982.878	2560.37
983.177	2571.44
983.475	2560.14
983.774	2544.1
984.073	2543.65
984.372	2525.34
984.67	2502.52
984.969	2512.91
985.267	2519.02
985.566	2516.3
985.864	2480.82
986.162	2444.44
986.461	2420.49
986.759	2426.14
987.057	2420.04
987.355	2407.38
987.653	2386.59
987.951	2389.08
988.249	2425.23
988.547	2363.09
988.844	2372.35
989.142	2383.2
989.44	2347.27
989.737	2354.95
990.035	2312.02
990.332	2304.78
990.63	2275.18
990.927	2283.09
991.224	2280.38
991.521	2261.4
991.819	2265.46
992.116	2245.8
992.413	2265.01
992.71	2248.29
993.006	2199.93
993.303	2178.69
993.6	2215.75
993.897	2210.78
994.193	2149.99
994.49	2179.82
994.787	2171.68
995.083	2135.3
995.379	2142.08
995.676	2141.62
995.972	2118.12
996.268	2099.82
996.565	2118.8
996.861	2101.4
997.157	2085.81
997.453	2079.25
997.749	2083.32
998.044	2051.01
998.34	2041.29
998.636	2039.25
998.932	2018.69
999.227	2020.5
999.523	2009.42
999.818	1994.28
1000.114	1996.09
1000.409	1946.83
1000.704	1945.7
1001	1953.38
1001.295	1926.71
1001.59	1972.82
1001.885	1943.89
1002.18	1919.48
1002.475	1924.23
1002.77	1922.2
1003.065	1884.23
1003.359	1909.31
1003.654	1897.56
1003.949	1892.37
1004.243	1856.43
1004.538	1819.37
1004.832	1836.55
1005.127	1779.83
1005.421	1807.4
1005.715	1793.61
1006.009	1775.53
1006.304	1779.15
1006.598	1790
1006.892	1762.2
1007.186	1782.54
1007.48	1764.01
1007.773	1722.88
1008.067	1739.38
1008.361	1704.12
1008.655	1699.6
1008.948	1740.05
1009.242	1696.44
1009.535	1672.48
1009.829	1701.41
1010.122	1669.55
1010.415	1639.94
1010.708	1640.39
1011.001	1633.62
1011.295	1614.86
1011.588	1630.68
1011.881	1615.31
1012.173	1600.17
1012.466	1596.78
1012.759	1598.59
1013.052	1583.9
1013.344	1560.17
1013.637	1562.43
1013.93	1544.8
1014.222	1545.03
1014.514	1574.18
1014.807	1552.94
1015.099	1513.62
1015.391	1522.66
1015.683	1496.67
1015.976	1477.24
1016.268	1472.49
1016.56	1449.44
1016.851	1450.12
1017.143	1441.53
1017.435	1471.59
1017.727	1431.36
1018.018	1447.18
1018.31	1438.59
1018.602	1437.69
1018.893	1422.55
1019.185	1416.67
1019.476	1395.88
1019.767	1361.08
1020.058	1376.45
1020.35	1350.46
1020.641	1356.33
1020.932	1333.06
1021.223	1327.63
1021.514	1321.08
1021.804	1294.64
1022.095	1309.78
1022.386	1331.48
1022.677	1295.55
1022.967	1308.88
1023.258	1253.96
1023.548	1271.82
1023.839	1262.1
1024.129	1275.43
1024.419	1246.51
1024.709	1251.25
1025	1224.59
1025.29	1241.99
1025.58	1245.6
1025.87	1230.24
1026.16	1197.92
1026.449	1206.96
1026.739	1185.04
1027.029	1178.71
1027.319	1182.55
1027.608	1166.06
1027.898	1149.11
1028.187	1164.48
1028.477	1143.91
1028.766	1146.4
1029.055	1153.18
1029.344	1117.47
1029.634	1119.05
1029.923	1119.05
1030.212	1084.7
1030.501	1112.27
1030.79	1080.41
1031.078	1083.57
1031.367	1069.34
1031.656	1073.63
1031.945	1062.56
1032.233	1049.45
1032.522	1055.33
1032.81	1044.03
1033.099	1041.99
1033.387	1029.11
1033.675	1026.17
1033.963	1022.11
1034.251	1022.33
1034.54	1014.87
1034.828	1007.64
1035.116	985.5
1035.403	1031.15
1035.691	981.65
1035.979	980.75
1036.267	965.38
1036.554	981.2
1036.842	959.28
1037.129	952.28
1037.417	918.83
1037.704	948.89
1037.992	951.15
1038.279	929.23
1038.566	920.87
1038.853	920.87
1039.14	920.87
