Data from 350_FLMS001491_006.txt Node
Date: Thu Apr 19 15:44:37 BST 2018
User: hsy
Spectrometer: FLMS00149
Trigger mode: 0
Integration Time (sec): 1.000000E-2
Scans to average: 10
Electric dark correction enabled: true
Nonlinearity correction enabled: false
Boxcar width: 0
XAxis mode: Wavelengths
Number of Pixels in Spectrum: 2048
>>>>>Begin Spectral Data<<<<<
341.393	14.28
341.776	14.28
342.16	14.28
342.543	-60.75
342.927	-70.01
343.31	-85.61
343.693	-79.5
344.077	-54.19
344.46	-62.78
344.843	-64.81
345.226	-37.02
345.61	-3.35
345.993	-18.71
346.376	-2.67
346.759	18.12
347.142	12.92
347.525	23.09
347.908	52.02
348.291	78.91
348.674	102.86
349.057	120.72
349.44	140.83
349.823	162.07
350.206	165.69
350.588	223.09
350.971	237.32
351.354	238
351.737	258.11
352.119	273.26
352.502	278
352.884	290.88
353.267	292.24
353.65	311.9
354.032	333.37
354.414	341.28
354.797	351.22
355.179	347.38
355.562	336.76
355.944	352.12
356.326	348.51
356.709	384.67
357.091	367.26
357.473	384.21
357.855	361.61
358.238	380.6
358.62	366.36
359.002	359.81
359.384	363.2
359.766	374.72
360.148	345.57
360.53	383.54
360.912	369.98
361.294	368.62
361.676	341.73
362.057	369.3
362.439	387.83
362.821	371.78
363.203	351.67
363.584	367.04
363.966	353.48
364.348	364.78
364.729	342.86
365.111	354.38
365.493	350.09
365.874	374.72
366.256	351.22
366.637	361.84
367.019	365.46
367.4	335.4
367.781	351.9
368.163	351.45
368.544	356.87
368.925	372.91
369.306	349.19
369.688	355.74
370.069	371.78
370.45	350.54
370.831	375.4
371.212	371.33
371.593	351.22
371.974	361.61
372.355	373.59
372.736	386.47
373.117	371.78
373.498	370.2
373.879	361.84
374.26	355.51
374.641	364.78
375.021	368.85
375.402	376.76
375.783	371.11
376.163	400.03
376.544	387.83
376.925	364.55
377.305	388.51
377.686	403.2
378.066	378.11
378.447	384.89
378.827	368.39
379.208	389.86
379.588	406.81
379.968	388.96
380.349	410.65
380.729	416.3
381.109	413.59
381.489	400.71
381.87	411.11
382.25	398.9
382.63	412.69
383.01	417.66
383.39	428.73
383.77	421.73
384.15	420.37
384.53	431.22
384.91	444.1
385.29	437.77
385.67	448.17
386.049	451.1
386.429	441.61
386.809	435.29
387.189	428.05
387.568	475.51
387.948	455.85
388.328	460.37
388.707	455.62
389.087	483.65
389.466	467.6
389.846	476.41
390.225	468.96
390.605	492.91
390.984	484.78
391.363	487.49
391.743	462.4
392.122	472.8
392.501	485.45
392.881	492.91
393.26	482.06
393.639	526.36
394.018	510.54
394.397	483.87
394.776	531.33
395.155	498.33
395.534	537.43
395.913	505.79
396.292	532.68
396.671	541.72
397.05	560.93
397.429	547.15
397.808	542.4
398.186	529.75
398.565	541.27
398.944	536.53
399.323	549.86
399.701	543.3
400.08	536.75
400.458	553.93
400.837	566.13
401.215	569.74
401.594	581.04
401.972	577.43
402.351	571.78
402.729	587.15
403.107	564.1
403.486	601.16
403.864	598.67
404.242	584.66
404.62	611.55
404.999	615.85
405.377	618.33
405.755	597.54
406.133	648.39
406.511	649.06
406.889	638.67
407.267	654.94
407.645	653.81
408.023	658.33
408.401	677.76
408.779	675.73
409.156	704.43
409.534	672.12
409.912	700.59
410.29	702.4
410.667	703.53
411.045	698.1
411.422	710.31
411.8	734.49
412.178	718.89
412.555	757.31
412.933	767.93
413.31	719.57
413.687	747.82
414.065	764.77
414.442	775.62
414.819	776.52
415.197	795.95
415.574	815.61
415.951	803.41
416.328	799.8
416.705	807.93
417.082	851.32
417.46	847.93
417.837	808.38
418.214	804.54
418.591	878.44
418.967	843.64
419.344	867.59
419.721	845.44
420.098	862.62
420.475	884.99
420.852	881.38
421.228	886.35
421.605	873.01
421.982	884.54
422.358	900.81
422.735	916.18
423.111	914.59
423.488	958.21
423.864	939.45
424.241	948.04
424.617	958.44
424.994	932.9
425.37	983.97
425.746	962.5
426.123	992.11
426.499	1004.54
426.875	998.21
427.251	1034.14
427.627	1025.33
428.003	1021.94
428.379	1045.44
428.756	1047.02
429.132	1041.14
429.507	1122.95
429.883	1070.07
430.259	1131.76
430.635	1109.17
431.011	1109.39
431.387	1130.18
431.763	1176.96
432.138	1180.8
432.514	1192.78
432.89	1176.73
433.265	1204.3
433.641	1212.89
434.016	1256.51
434.392	1261.93
434.767	1263.06
435.143	1252.89
435.518	1289.05
435.894	1306.67
436.269	1314.58
436.644	1345.54
437.02	1346.45
437.395	1346.22
437.77	1351.19
438.145	1366.33
438.52	1381.47
438.895	1391.87
439.271	1382.6
439.646	1404.53
440.021	1397.97
440.395	1402.49
440.77	1423.96
441.145	1415.82
441.52	1471.64
441.895	1480.46
442.27	1477.74
442.645	1461.02
443.019	1500.57
443.394	1500.57
443.769	1504.18
444.143	1507.12
444.518	1530.17
444.892	1524.07
445.267	1538.08
445.641	1562.94
446.016	1546.44
446.39	1541.7
446.764	1577.85
447.139	1579.66
447.513	1600.45
447.887	1610.4
448.262	1595.25
448.636	1607.23
449.01	1632.99
449.384	1658.98
449.758	1659.66
450.132	1691.3
450.506	1691.3
450.88	1674.8
451.254	1680.22
451.628	1730.39
452.002	1749.37
452.376	1768.81
452.75	1782.37
453.123	1783.95
453.497	1827.11
453.871	1824.4
454.244	1894
454.618	1905.98
454.992	1936.26
455.365	1950.05
455.739	1939.43
456.112	1973.32
456.486	1991.18
456.859	2009.93
457.232	2049.25
457.606	2046.54
457.979	2091.74
458.352	2131.96
458.725	2145.75
459.099	2145.75
459.472	2190.95
459.845	2215.8
460.218	2189.82
460.591	2272.52
460.964	2287.89
461.337	2298.06
461.71	2347.55
462.083	2372.86
462.456	2386.65
462.829	2406.53
463.201	2420.09
463.574	2447.44
463.947	2471.84
464.32	2460.99
464.692	2531.5
465.065	2557.26
465.438	2587.54
465.81	2629.35
466.183	2661.67
466.555	2667.09
466.928	2708.9
467.3	2696.24
467.672	2764.49
468.045	2847.88
468.417	2807.43
468.789	2857.59
469.161	2829.12
469.534	2923.58
469.906	2984.37
470.278	2968.55
470.65	3058.49
471.022	3065.95
471.394	3115.67
471.766	3162.67
472.138	3167.19
472.51	3255.78
472.882	3266.85
473.253	3272.72
473.625	3360.86
473.997	3405.83
474.369	3458.03
474.74	3502.78
475.112	3575.09
475.484	3593.85
475.855	3668.42
476.227	3698.7
476.598	3812.37
476.97	3797
477.341	3912.03
477.713	3952.93
478.084	4018.69
478.455	4054.4
478.827	4160.61
479.198	4213.94
479.569	4262.76
479.94	4395.18
480.311	4453.26
480.682	4522.41
481.053	4631.11
481.424	4682.63
481.795	4730.99
482.166	4772.12
482.537	4903.42
482.908	5027.25
483.279	5067.25
483.65	5163.52
484.021	5181.15
484.391	5286.01
484.762	5334.37
485.133	5389.51
485.503	5562.83
485.874	5647.8
486.244	5723.51
486.615	5823.17
486.985	5885.76
487.356	5959.66
487.726	6029.26
488.097	6197.39
488.467	6238.75
488.837	6358.07
489.207	6475.35
489.578	6579.08
489.948	6619.76
490.318	6723.93
490.688	6730.03
491.058	6883.25
491.428	6964.38
491.798	7066.3
492.168	7263.35
492.538	7286.63
492.908	7427.19
493.278	7449.34
493.648	7543.57
494.017	7656.56
494.387	7752.15
494.757	7819.5
495.126	7946.27
495.496	7980.17
495.866	8120.96
496.235	8086.38
496.605	8246.38
496.974	8334.51
497.344	8392.59
497.713	8522.76
498.082	8505.58
498.452	8604.56
498.821	8671.9
499.19	8863.54
499.559	8871.67
499.928	8866.7
500.298	9000.03
500.667	9090.88
501.036	9194.6
501.405	9255.17
501.774	9295.84
502.143	9379
502.512	9496.29
502.88	9585.1
503.249	9588.49
503.618	9708.49
503.987	9683.4
504.356	9866.45
504.724	9923.85
505.093	9953.45
505.462	10029.38
505.83	10094.47
506.199	10275.7
506.567	10370.39
506.936	10367.23
507.304	10432.76
507.672	10553.44
508.041	10662.81
508.409	10815.13
508.777	10821
509.145	10941.9
509.514	10898.06
509.882	11048.11
510.25	11161.33
510.618	11339.63
510.986	11277.03
511.354	11400.19
511.722	11535.33
512.09	11606.74
512.458	11582.11
512.826	11790.69
513.193	11852.61
513.561	11892.84
513.929	11966.96
514.297	12147.52
514.664	12192.94
515.032	12293.73
515.4	12518.81
515.767	12501.41
516.135	12528.07
516.502	12563.78
516.869	12751.8
517.237	12905.24
517.604	12749.31
517.972	13061.62
518.339	13132.13
518.706	13217.32
519.073	13291.67
519.44	13279.92
519.808	13496.64
520.175	13542.06
520.542	13715.61
520.909	13769.62
521.276	13852.79
521.643	14045.1
522.009	14189.5
522.376	14220.01
522.743	14398.31
523.11	14457.06
523.477	14731.63
523.843	14728.47
524.21	14909.25
524.577	15068.8
524.943	15103.37
525.31	15225.18
525.676	15424.5
526.043	15588.11
526.409	15633.08
526.776	15791.49
527.142	15907.42
527.508	16002.33
527.874	16124.36
528.241	16245.04
528.607	16339.95
528.973	16511.7
529.339	16583.79
529.705	16722.31
530.071	16876.43
530.437	16919.6
530.803	17043.89
531.169	17134.06
531.535	17192.36
531.901	17333.6
532.267	17321.39
532.632	17516.87
532.998	17563.65
533.364	17673.7
533.73	17705.79
534.095	17835.28
534.461	17943.75
534.826	17970.19
535.192	18039.57
535.557	18218.77
535.923	18220.35
536.288	18333.12
536.653	18410.86
537.019	18447.92
537.384	18500.57
537.749	18541.48
538.114	18570.4
538.479	18654.02
538.845	18805.2
539.21	18794.12
539.575	18865.31
539.94	18904.86
540.305	19029.37
540.67	19050.84
541.034	19134
541.399	19122.03
541.764	19181.01
542.129	19214.9
542.494	19358.86
542.858	19428.23
543.223	19408.35
543.587	19491.28
543.952	19574.89
544.316	19607.44
544.681	19619.87
545.045	19847.43
545.41	19854.21
545.774	19790.71
546.138	19830.93
546.503	19979.86
546.867	19999.74
547.231	20143.24
547.595	20146.63
547.959	20204.48
548.324	20287.19
548.688	20285.38
549.052	20385.04
549.416	20457.36
549.779	20466.85
550.143	20545.94
550.507	20576.68
550.871	20690.12
551.235	20726.73
551.599	20767.86
551.962	20885.59
552.326	20994.07
552.689	20997.23
553.053	20989.77
553.417	21124.46
553.78	21316.54
554.143	21332.59
554.507	21466.14
554.87	21452.36
555.234	21581.85
555.597	21534.84
555.96	21676.76
556.323	21725.35
556.686	21732.8
557.05	21872.24
557.413	22022.74
557.776	22018.22
558.139	22374.14
558.502	22333.92
558.865	22358.32
559.228	22560.35
559.59	22561.26
559.953	22742.72
560.316	22866.56
560.679	22879.21
561.041	22954.69
561.404	23255.7
561.767	23263.39
562.129	23330.28
562.492	23449.82
562.854	23546.77
563.217	23677.39
563.579	23757.16
563.941	23799.87
564.304	23960.77
564.666	24237.15
565.028	24173.64
565.39	24233.53
565.753	24435.33
566.115	24532.96
566.477	24676.23
566.839	24833.51
567.201	25117.57
567.563	25018.14
567.925	25178.36
568.287	25245.25
568.648	25314.41
569.01	25484.12
569.372	25691.57
569.734	25653.61
570.095	25860.61
570.457	26013.14
570.819	26095.63
571.18	26059.47
571.542	26304.44
571.903	26313.93
572.265	26391.66
572.626	26608.16
572.987	26576.52
573.349	26745.78
573.71	26984.42
574.071	26971.54
574.432	27128.59
574.794	27357.97
575.155	27341.02
575.516	27235.71
575.877	27355.71
576.238	27415.59
576.599	27524.97
576.96	27563.39
577.32	27664.63
577.681	27751.86
578.042	27827.56
578.403	27830.5
578.763	27823.49
579.124	27949.14
579.485	28051.06
579.845	28213.54
580.206	28080.66
580.566	28018.74
580.927	28320.65
581.287	28285.63
581.648	28120.21
582.008	28401.56
582.368	28374.89
582.728	28406.75
583.089	28300.09
583.449	28417.83
583.809	28397.94
584.169	28567.88
584.529	28361.33
584.889	28550.48
585.249	28427.32
585.609	28279.98
585.969	28505.73
586.329	28237.49
586.688	28366.98
587.048	28357.26
587.408	28378.51
587.768	28469.8
588.127	28463.47
588.487	28367.88
588.846	28682.23
589.206	28445.62
589.565	28421.67
589.925	28537.15
590.284	28422.57
590.643	28404.27
591.003	28408.11
591.362	28591.38
591.721	28448.79
592.08	28476.81
592.44	28599.52
592.799	28588.9
593.158	28341.44
593.517	28451.27
593.876	28533.08
594.235	28348.68
594.593	28537.82
594.952	28572.62
595.311	28403.36
595.67	28593.87
596.029	28708.89
596.387	28622.79
596.746	28773.07
597.104	28456.92
597.463	28509.58
597.822	28677.25
598.18	28407.43
598.538	28570.36
598.897	28632.74
599.255	28445.17
599.613	28842.45
599.972	28717.93
600.33	28614.43
600.688	28526.75
601.046	28696.01
601.404	28900.98
601.762	28565.39
602.12	28722
602.478	28692.85
602.836	28736.69
603.194	28617.59
603.552	28694.88
603.91	28620.08
604.268	28847.87
604.625	28699.17
604.983	28856.46
605.341	28659.4
605.698	28903.69
606.056	29096.45
606.413	28872.73
606.771	28995.21
607.128	28955.44
607.485	28788.44
607.843	28839.28
608.2	29091.93
608.557	29341.42
608.914	29078.37
609.272	29267.52
609.629	29438.59
609.986	29383.45
610.343	29272.72
610.7	29446.05
611.057	29345.26
611.414	29220.74
611.771	29468.65
612.127	29444.47
612.484	29607.17
612.841	29757.9
613.198	29598.36
613.554	29611.69
613.911	29764.68
614.267	29736.66
614.624	29712.93
614.98	29712.71
615.337	29986.82
615.693	29874.51
616.05	29939.59
616.406	30026.6
616.762	29864.57
617.118	29952.48
617.475	29981.63
617.831	30274.05
618.187	30199.7
618.543	30192.47
618.899	30275.18
619.255	30276.76
619.611	30209.87
619.967	30483.08
620.323	30432.69
620.678	30364.89
621.034	30352.01
621.39	30199.93
621.746	30357.66
622.101	30641.95
622.457	30461.61
622.812	30615.28
623.168	30634.04
623.523	30461.39
623.879	30548.84
624.234	30526.7
624.589	30617.09
624.945	30635.85
625.3	30610.54
625.655	30679.46
626.01	30614.83
626.365	30722.62
626.72	30643.53
627.075	30527.83
627.43	30617.32
627.785	30437.66
628.14	30544.78
628.495	30605.34
628.85	30680.37
629.205	30546.58
629.559	30596.75
629.914	30406.25
630.269	30471.56
630.623	30175.97
630.978	30362.41
631.332	30531.44
631.687	30477.43
632.041	30420.71
632.396	30410.77
632.75	30312.69
633.104	30342.97
633.459	30173.26
633.813	30208.29
634.167	30114.5
634.521	30104.34
634.875	30199.25
635.229	30165.12
635.583	30028.41
635.937	30048.74
636.291	29946.6
636.645	29885.36
636.999	29794.97
637.352	29842.42
637.706	29776.66
638.06	29869.99
638.413	29714.52
638.767	29680.62
639.121	29800.16
639.474	29480.85
639.828	29713.16
640.181	29526.5
640.534	29649.21
640.888	29410.79
641.241	29435.43
641.594	29336.67
641.947	29468.87
642.301	29257.35
642.654	29232.72
643.007	29237.24
643.36	29305.49
643.713	29237.24
644.066	29321.53
644.419	29186.39
644.771	28711.83
645.124	28496.69
645.477	28490.82
645.83	28512.29
646.182	28557.48
646.535	28392.74
646.888	28463.25
647.24	28415.57
647.593	28554.77
647.945	28542.34
648.298	28464.15
648.65	28206.76
649.002	27916.82
649.355	27709.37
649.707	27722.48
650.059	27592.09
650.411	28033.2
650.763	28275.23
651.115	28699.63
651.467	28605.39
651.819	28549.57
652.171	28518.39
652.523	28457.37
652.875	28493.76
653.227	28519.97
653.578	28586.64
653.93	28501.67
654.282	28332.86
654.633	28460.99
654.985	28352.74
655.337	28270.26
655.688	28194.1
656.039	28393.19
656.391	28228
656.742	28235.68
657.094	28210.37
657.445	28420.76
657.796	28308.22
658.147	28159.98
658.498	28335.12
658.849	28350.26
659.2	28174.22
659.551	28025.97
659.902	28363.59
660.253	28230.03
660.604	28255.34
660.955	28095.35
661.306	28340.99
661.656	28175.35
662.007	28278.17
662.358	28208.11
662.708	28248.57
663.059	28261.67
663.409	28073.65
663.76	28344.38
664.11	28273.42
664.461	28295.8
664.811	28264.84
665.161	28276.14
665.511	28179.87
665.862	28198.4
666.212	28313.65
666.562	28229.81
666.912	28227.77
667.262	28082.02
667.612	28180.32
667.962	28215.12
668.312	28058.74
668.662	28208.79
669.011	28178.06
669.361	28195.91
669.711	28190.71
670.06	28030.49
670.41	27971.28
670.76	27976.93
671.109	28172.63
671.459	28174.67
671.808	28119.53
672.157	28195.69
672.507	27960.89
672.856	28054.9
673.205	27866.65
673.554	28049.93
673.904	27946.43
674.253	28143.71
674.602	27938.29
674.951	27689.03
675.3	27555.7
675.649	27953.21
675.998	27877.05
676.346	28003.83
676.695	27976.26
677.044	27859.87
677.393	27854.68
677.741	27935.81
678.09	27804.06
678.438	27782.81
678.787	27756.83
679.135	27874.11
679.484	27651.52
679.832	27720.9
680.181	27686.55
680.529	27677.96
680.877	27484.97
681.225	27505.76
681.573	27797.73
681.922	27560.45
682.27	27430.28
682.618	27504.18
682.966	27399.55
683.314	27422.6
683.661	27504.86
684.009	27278.2
684.357	27262.15
684.705	26995.04
685.053	27116.17
685.4	27043.17
685.748	26928.37
686.095	27022.16
686.443	26875.27
686.79	26807.93
687.138	26922.05
687.485	26847.47
687.832	26558.89
688.18	26793.24
688.527	26656.52
688.874	26580.59
689.221	26451.78
689.568	26266.02
689.915	26313.02
690.262	26331.33
690.609	26351.89
690.956	26117.32
691.303	26056.53
691.65	26009.98
691.997	25851.11
692.344	25855.63
692.69	25801.17
693.037	25683.21
693.383	25511.91
693.73	25615.64
694.077	25299.04
694.423	25462.65
694.769	25184.69
695.116	25288.64
695.462	25205.71
695.808	25057.91
696.155	25080.29
696.501	24887.52
696.847	24904.02
697.193	24766.4
697.539	24729.34
697.885	24686.62
698.231	24584.25
698.577	24524.14
698.923	24511.04
699.269	24242.34
699.614	24234.89
699.96	24165.96
700.306	24086.64
700.651	23926.42
700.997	23924.16
701.342	23906.53
701.688	23817.27
702.033	23749.47
702.379	23684.62
702.724	23591.74
703.069	23574.34
703.415	23412.08
703.76	23368.47
704.105	23367.56
704.45	23251.18
704.795	23159.43
705.14	23147
705.485	23141.13
705.83	22995.6
706.175	23069.72
706.52	22977.74
706.865	22865.66
707.209	22781.36
707.554	22703.4
707.899	22702.04
708.243	22693.91
708.588	22632.22
708.932	22452.56
709.277	22487.36
709.621	22345.9
709.966	22256.18
710.31	22303.18
710.654	22170.98
710.998	22261.15
711.342	22195.62
711.687	22175.05
712.031	21980.93
712.375	21972.57
712.719	22068.16
713.063	21908.39
713.407	22018.67
713.75	21777.55
714.094	21787.27
714.438	21625.46
714.782	21655.97
715.125	21643.32
715.469	21800.15
715.812	21550.44
716.156	21525.58
716.499	21446.26
716.843	21492.36
717.186	21377.79
717.53	21538.69
717.873	21452.81
718.216	21448.52
718.559	21312.48
718.902	21167.85
719.246	21215.3
719.589	21144.35
719.932	21154.97
720.275	21132.37
720.617	21071.35
720.96	21147.06
721.303	21052.6
721.646	21093.27
721.989	21017.34
722.331	21119.04
722.674	20881.53
723.016	20999.04
723.359	20937.12
723.701	20990.45
724.044	20924.69
724.386	20745.49
724.729	20926.95
725.071	20848.53
725.413	20770.34
725.755	20786.16
726.097	20675.43
726.439	20613.06
726.782	20626.84
727.124	20846.95
727.465	20714.3
727.807	20641.08
728.149	20636.11
728.491	20492.84
728.833	20659.16
729.175	20516.79
729.516	20506.17
729.858	20542.33
730.199	20582.33
730.541	20491.93
730.882	20360.41
731.224	20453.29
731.565	20395.66
731.906	20443.8
732.248	20556.56
732.589	20393.86
732.93	20373.74
733.271	20336.91
733.612	20445.61
733.953	20396.34
734.294	20404.7
734.635	20348.21
734.976	20476.79
735.317	20419.17
735.658	20246.97
735.999	20368.77
736.339	20339.39
736.68	20376.46
737.021	20270.02
737.361	20228.89
737.702	20298.27
738.042	20360.41
738.383	20320.19
738.723	20326.06
739.063	20277.93
739.404	20476.57
739.744	20346.4
740.084	20234.09
740.424	20312.28
740.764	20276.57
741.104	20458.04
741.444	20343.01
741.784	20226.86
742.124	20320.19
742.464	20244.93
742.804	20393.63
743.143	20419.84
743.483	20389.56
743.823	20238.83
744.162	20321.54
744.502	20412.39
744.841	20291.26
745.181	20451.48
745.52	20331.26
745.86	20474.98
746.199	20378.94
746.538	20422.33
746.877	20550.01
747.216	20524.25
747.556	20435.21
747.895	20613.51
748.234	20567.41
748.573	20593.17
748.911	20509.33
749.25	20592.95
749.589	20558.15
749.928	20649.44
750.267	20654.87
750.605	20603.57
750.944	20720.4
751.283	20640.18
751.621	20758.59
751.96	20687.63
752.298	20743.9
752.636	20833.62
752.975	20766.73
753.313	20709.78
753.651	20943.9
753.989	20900.96
754.327	20898.48
754.666	20849.44
755.004	20971.02
755.342	20998.59
755.679	21007.63
756.017	20914.52
756.355	21013.5
756.693	20968.3
757.031	21140.5
757.368	21039.04
757.706	20974.86
758.044	21051.01
758.381	20984.35
758.719	21053.73
759.056	20987.06
759.394	21116.55
759.731	20932.6
760.068	21033.16
760.405	21068.41
760.743	20925.37
761.08	20925.59
761.417	20994.74
761.754	20968.76
762.091	20882.66
762.428	20832.04
762.765	20801.98
763.102	20801.3
763.438	20853.73
763.775	20711.81
764.112	20862.32
764.449	20817.12
764.785	20756.33
765.122	20750.46
765.458	20730.34
765.795	20651.7
766.131	20710.23
766.467	20569.22
766.804	20550.24
767.14	20539.16
767.476	20533.74
767.812	20513.18
768.148	20532.38
768.485	20345.72
768.821	20268.89
769.157	20268.44
769.492	20218.27
769.828	20249.91
770.164	19963.81
770.5	19964.72
770.836	19952.96
771.171	19899.41
771.507	19867.09
771.842	19755.46
772.178	19738.51
772.513	19766.98
772.849	19680.43
773.184	19580.77
773.519	19678.62
773.855	19453.77
774.19	19495.35
774.525	19408.12
774.86	19304.17
775.195	19310.72
775.53	19256.94
775.865	19155.7
776.2	19054.68
776.535	18955.93
776.87	18920.67
777.205	18943.73
777.539	18757.97
777.874	18723.17
778.209	18631.87
778.543	18647.46
778.878	18441.14
779.212	18525.66
779.547	18427.13
779.881	18444.53
780.215	18278.43
780.55	18361.14
780.884	18270.07
781.218	18087.48
781.552	18114.82
781.886	18042.73
782.22	17991.43
782.554	17903.53
782.888	17758.45
783.222	17743.53
783.556	17598.45
783.889	17614.95
784.223	17573.37
784.557	17534.27
784.89	17568.39
785.224	17505.12
785.557	17369.08
785.891	17297.89
786.224	17327.04
786.558	17223.09
786.891	17119.37
787.224	17078.24
787.557	16960.5
787.891	17005.24
788.224	16825.81
788.557	16939.03
788.89	16819.04
789.223	16794.18
789.556	16720.28
789.888	16601.87
790.221	16554.18
790.554	16414.3
790.887	16460.17
791.219	16392.15
791.552	16360.52
791.884	16239.16
792.217	16185.38
792.549	16148.32
792.882	16068.09
793.214	16021.09
793.546	15995.55
793.879	15966.18
794.211	15820.19
794.543	15839.85
794.875	15831.04
795.207	15798.72
795.539	15743.13
795.871	15761.66
796.203	15628.11
796.535	15452.74
796.867	15504.27
797.198	15432.18
797.53	15492.97
797.862	15295.46
798.193	15354.89
798.525	15327.77
798.856	15233.09
799.188	15070.83
799.519	15072.41
799.85	14957.16
800.182	15023.15
800.513	15104.5
800.844	14740.9
801.175	14877.62
801.506	14804.4
801.837	14747.45
802.168	14749.03
802.499	14817.05
802.83	14721.01
803.161	14565.31
803.491	14664.74
803.822	14549.49
804.153	14538.19
804.483	14420.68
804.814	14364.41
805.145	14417.29
805.475	14350.85
805.805	14356.95
806.136	14358.08
806.466	14293.23
806.796	14321.93
807.126	14167.58
807.457	14124.19
807.787	14200.35
808.117	14064.98
808.447	13993.8
808.777	14089.16
809.107	13901.37
809.436	13932.56
809.766	13976.62
810.096	13950.18
810.426	13871.99
810.755	13846.01
811.085	13812.79
811.414	13765.56
811.744	13754.26
812.073	13725.56
812.403	13687.14
812.732	13632.45
813.061	13692.11
813.39	13578.89
813.719	13570.53
814.049	13552.91
814.378	13574.6
814.707	13436.53
815.036	13494.83
815.365	13346.58
815.693	13230.65
816.022	13318.56
816.351	13296.42
816.68	13131.67
817.008	13261.61
817.337	13089.87
817.665	13107.95
817.994	13125.12
818.322	13223.65
818.651	13103.65
818.979	13093.48
819.307	13125.12
819.636	12980.72
819.964	12912.47
820.292	13000.38
820.62	12982.53
820.948	12929.42
821.276	13113.82
821.604	12969.42
821.932	13067.04
822.259	13017.78
822.587	12968.06
822.915	12905.24
823.243	13015.75
823.57	12905.01
823.898	13042.41
824.225	12865.69
824.553	12878.35
824.88	12925.13
825.207	12959.7
825.535	12956.54
825.862	12961.74
826.189	12878.8
826.516	12950.66
826.843	12967.39
827.17	13062.07
827.497	12952.02
827.824	12933.94
828.151	12994.73
828.478	12929.87
828.805	12999.93
829.131	12927.39
829.458	12907.5
829.785	12874.28
830.111	12900.04
830.438	12991.11
830.764	12925.13
831.09	12917.44
831.417	12820.04
831.743	12938.01
832.069	12881.29
832.395	12904.56
832.722	12963.32
833.048	12898.69
833.374	12928.97
833.7	12842.19
834.026	12886.71
834.351	12854.62
834.677	12900.95
835.003	12851.68
835.329	12842.64
835.654	12775.75
835.98	12760.84
836.306	12801.97
836.631	12727.62
836.956	12796.54
837.282	12811.68
837.607	12756.77
837.932	12761.06
838.258	12719.03
838.583	12804.9
838.908	12650.78
839.233	12684.45
839.558	12645.59
839.883	12650.56
840.208	12579.37
840.533	12613.95
840.858	12563.33
841.182	12569.43
841.507	12540.05
841.832	12373.95
842.156	12489.43
842.481	12449.21
842.805	12382.09
843.13	12365.37
843.454	12300.74
843.778	12338.93
844.103	12386.61
844.427	12296.89
844.751	12381.41
845.075	12298.7
845.399	12220.29
845.723	12196.11
846.047	12194.07
846.371	12054.64
846.695	12043.34
847.019	12049.67
847.343	12008.09
847.666	11928.32
847.99	11906.17
848.313	11810.81
848.637	11851.71
848.96	11786.85
849.284	11790.01
849.607	11651.71
849.931	11687.42
850.254	11689.45
850.577	11511.38
850.9	11490.14
851.223	11412.62
851.546	11423.24
851.869	11412.62
852.192	11396.58
852.515	11180.54
852.838	11247.2
853.161	11257.37
853.483	11157.04
853.806	11194.32
854.129	11095.12
854.451	11081.78
854.774	10972.64
855.096	11011.05
855.419	10928.34
855.741	10945.07
856.063	10904.61
856.385	10879.76
856.708	10842.47
857.03	10831.85
857.352	10782.36
857.674	10714.56
857.996	10688.8
858.318	10613.77
858.64	10669.14
858.961	10591.18
859.283	10570.39
859.605	10525.42
859.926	10539.88
860.248	10552.53
860.57	10477.96
860.891	10389.83
861.212	10416.49
861.534	10436.15
861.855	10294.69
862.176	10304.86
862.498	10336.72
862.819	10339.21
863.14	10297.85
863.461	10248.13
863.782	10273.67
864.103	10208.14
864.424	10182.6
864.745	10265.99
865.065	10101.7
865.386	10100.12
865.707	10158.19
866.027	10148.02
866.348	10159.32
866.668	10046.78
866.989	10060.12
867.309	10003.62
867.63	10000.23
867.95	10056.73
868.27	9854.7
868.59	10004.53
868.91	9928.59
869.23	9956.84
869.55	9890.4
869.87	9953.45
870.19	9913.68
870.51	9892.21
870.83	9856.96
871.15	9906.45
871.469	9814.02
871.789	9891.76
872.109	9822.38
872.428	9774.47
872.748	9762.27
873.067	9775.38
873.386	9836.62
873.706	9794.36
874.025	9635.27
874.344	9664.65
874.663	9700.13
874.982	9682.27
875.301	9690.41
875.62	9524.54
875.939	9530.41
876.258	9579
876.577	9541.26
876.896	9585.78
877.214	9550.75
877.533	9546.46
877.852	9600.47
878.17	9501.26
878.489	9508.04
878.807	9464.65
879.125	9496.74
879.444	9438.21
879.762	9401.6
880.08	9423.52
880.398	9339.68
880.716	9349.85
881.034	9340.81
881.352	9337.42
881.67	9352.79
881.988	9334.49
882.306	9288.39
882.624	9279.12
882.941	9180.37
883.259	9252.91
883.577	9271.21
883.894	9255.17
884.212	9150.76
884.529	9176.07
884.846	9072.12
885.164	9136.75
885.481	9036.19
885.798	9076.64
886.115	9064.66
886.432	9033.25
886.75	9034.61
887.067	9023.99
887.383	8960.71
887.7	8921.62
888.017	8873.48
888.334	8884.33
888.651	8832.13
888.967	8883.42
889.284	8800.49
889.6	8874.39
889.917	8750.55
890.233	8796.87
890.55	8727.27
890.866	8781.51
891.182	8736.99
891.498	8696.54
891.815	8660.15
892.131	8615.41
892.447	8580.38
892.763	8610.89
893.079	8610.66
893.395	8525.24
893.71	8495.19
894.026	8474.4
894.342	8459.25
894.657	8409.31
894.973	8401.63
895.289	8392.14
895.604	8369.99
895.92	8330.22
896.235	8236.44
896.55	8334.51
896.865	8274.63
897.181	8247.96
897.496	8259.49
897.811	8185.36
898.126	8104.91
898.441	8145.36
898.756	8095.42
899.071	8101.07
899.386	8120.05
899.7	8111.92
900.015	7998.7
900.33	7906.73
900.644	7970
900.959	7882.55
901.273	7916.22
901.588	7850.68
901.902	7845.26
902.216	7828.31
902.531	7779.72
902.845	7747.18
903.159	7706.28
903.473	7741.53
903.787	7635.1
904.101	7589.67
904.415	7618.83
904.729	7538.6
905.042	7588.77
905.356	7504.25
905.67	7560.97
905.984	7526.85
906.297	7509.9
906.611	7423.35
906.924	7432.84
907.237	7405.05
907.551	7399.17
907.864	7367.98
908.177	7308.78
908.491	7280.3
908.804	7193.75
909.117	7164.83
909.43	7127.54
909.743	7113.53
910.056	7120.31
910.368	7113.3
910.681	7014.55
910.994	7060.65
911.307	6983.14
911.619	6966.41
911.932	6962.12
912.244	6883.7
912.557	6854.33
912.869	6830.15
913.181	6810.48
913.494	6822.69
913.806	6813.42
914.118	6815.68
914.43	6735.01
914.742	6756.7
915.054	6648
915.366	6652.07
915.678	6622.92
915.99	6620.66
916.302	6545.41
916.613	6551.96
916.925	6564.62
917.236	6525.29
917.548	6511.06
917.859	6430.61
918.171	6426.99
918.482	6397.84
918.794	6363.72
919.105	6329.82
919.416	6305.41
919.727	6282.36
920.038	6248.47
920.349	6195.13
920.66	6211.4
920.971	6218.41
921.282	6171.63
921.593	6101.8
921.903	6101.58
922.214	6092.31
922.525	6074.01
922.835	6051.18
923.146	5992.65
923.456	5965.54
923.767	5948.36
924.077	5940.9
924.387	5910.62
924.697	5883.96
925.008	5876.27
925.318	5830.17
925.628	5901.81
925.938	5880.11
926.248	5756.05
926.558	5751.3
926.867	5684.86
927.177	5676.28
927.487	5703.85
927.796	5647.13
928.106	5635.6
928.416	5652.55
928.725	5575.26
929.034	5631.76
929.344	5555.83
929.653	5541.82
929.962	5569.39
930.271	5453.91
930.581	5482.61
930.89	5452.78
931.199	5439.67
931.508	5386.34
931.817	5382.05
932.125	5393.8
932.434	5385.44
932.743	5247.59
933.051	5293.46
933.36	5224.31
933.669	5240.13
933.977	5196.97
934.286	5215.72
934.594	5178.89
934.902	5208.94
935.21	5149.06
935.519	5118.1
935.827	5129.63
936.135	5090.98
936.443	5051.66
936.751	5031.32
937.059	5001.72
937.367	5006.92
937.674	4977.99
937.982	4935.28
938.29	4939.12
938.597	4967.82
938.905	4881.04
939.213	4872.68
939.52	4830.42
939.827	4829.75
940.135	4793.81
940.442	4790.65
940.749	4725.12
941.056	4805.34
941.363	4688.51
941.67	4662.29
941.977	4673.14
942.284	4640.15
942.591	4626.59
942.898	4650.99
943.205	4622.29
943.511	4631.56
943.818	4593.14
944.125	4549.08
944.431	4549.98
944.738	4521.51
945.044	4464.11
945.35	4477.89
945.657	4450.55
945.963	4438.34
946.269	4473.6
946.575	4415.52
946.881	4416.42
947.187	4391.34
947.493	4340.49
947.799	4337.78
948.105	4344.79
948.41	4291.91
948.716	4248.29
949.022	4289.65
949.327	4276.54
949.633	4216.43
949.938	4203.55
950.244	4193.83
950.549	4171.68
950.854	4131.46
951.16	4130.33
951.465	4061.63
951.77	4127.39
952.075	4120.84
952.38	4055.08
952.685	4059.6
952.99	4053.5
953.294	4037.68
953.599	3994.29
953.904	3955.64
954.209	3983.21
954.513	3928.98
954.818	3943.44
955.122	3937.34
955.426	3934.85
955.731	3895.53
956.035	3852.14
956.339	3839.26
956.643	3859.15
956.948	3834.07
957.252	3792.03
957.556	3789.1
957.86	3771.47
958.163	3773.73
958.467	3802.88
958.771	3742.77
959.075	3742.09
959.378	3676.78
959.682	3685.37
959.985	3662.54
960.289	3666.61
960.592	3654.41
960.896	3607.41
961.199	3638.59
961.502	3615.31
961.805	3573.51
962.108	3575.09
962.411	3556.56
962.714	3502.1
963.017	3513.85
963.32	3505.26
963.623	3523.57
963.926	3494.87
964.228	3444.47
964.531	3451.48
964.833	3479.95
965.136	3432.04
965.438	3432.95
965.741	3377.13
966.043	3354.08
966.345	3355.89
966.648	3395.21
966.95	3347.98
967.252	3371.48
967.554	3334.64
967.856	3286.74
968.158	3267.08
968.46	3260.97
968.761	3263.46
969.063	3292.16
969.365	3239.28
969.666	3195.66
969.968	3197.92
970.269	3185.72
970.571	3180.07
970.872	3134.2
971.174	3187.98
971.475	3197.7
971.776	3133.29
972.077	3100.98
972.378	3088.55
972.679	3060.98
972.98	3049.68
973.281	3076.57
973.582	3045.61
973.883	3017.14
974.183	3018.27
974.484	3002.22
974.785	3010.13
975.085	2989.79
975.386	2979.63
975.686	2966.97
975.986	2967.2
976.287	2957.25
976.587	2918.16
976.887	2890.14
977.187	2881.1
977.487	2885.39
977.787	2863.7
978.087	2859.63
978.387	2824.83
978.687	2808.33
978.987	2843.13
979.286	2792.29
979.586	2804.71
979.885	2770.37
980.185	2756.58
980.484	2775.11
980.784	2728.56
981.083	2698.28
981.382	2719.29
981.682	2734.43
981.981	2743.02
982.28	2694.43
982.579	2677.03
982.878	2660.99
983.177	2658.05
983.475	2632.97
983.774	2632.06
984.073	2604.04
984.372	2589.13
984.67	2605.85
984.969	2614.66
985.267	2539.86
985.566	2584.61
985.864	2566.3
986.162	2537.83
986.461	2526.98
986.759	2499.86
987.057	2520.43
987.355	2489.69
987.653	2460.54
987.951	2472.97
988.249	2455.12
988.547	2456.02
988.844	2442.92
989.142	2444.72
989.44	2458.51
989.737	2406.53
990.035	2417.38
990.332	2403.14
990.63	2373.54
990.927	2377.83
991.224	2355.69
991.521	2335.12
991.819	2340.77
992.116	2340.77
992.413	2315.91
992.71	2316.14
993.006	2303.94
993.303	2279.76
993.6	2289.02
993.897	2279.98
994.193	2251.28
994.49	2267.55
994.787	2275.01
995.083	2244.96
995.379	2216.71
995.676	2204.73
995.972	2178.74
996.268	2228.91
996.565	2163.83
996.861	2189.14
997.157	2158.63
997.453	2144.39
997.749	2147.33
998.044	2120.66
998.34	2132.42
998.636	2145.07
998.932	2105.07
999.227	2066.65
999.523	2077.5
999.818	2077.73
1000.114	2053.32
1000.409	2034.34
1000.704	2048.35
1001	2011.06
1001.295	1993.66
1001.59	1996.83
1001.885	2023.27
1002.18	1985.3
1002.475	2018.29
1002.77	1988.24
1003.065	1953.21
1003.359	1932.19
1003.654	1938.3
1003.949	1928.13
1004.243	1927.45
1004.538	1887.9
1004.832	1894
1005.127	1880.22
1005.421	1874.57
1005.715	1859.2
1006.009	1856.04
1006.304	1851.52
1006.598	1823.5
1006.892	1821.69
1007.186	1808.81
1007.48	1780.56
1007.773	1822.82
1008.067	1791.63
1008.361	1761.8
1008.655	1762.93
1008.948	1780.56
1009.242	1767.45
1009.535	1729.71
1009.829	1731.75
1010.122	1743.95
1010.415	1726.78
1010.708	1724.06
1011.001	1682.03
1011.295	1668.02
1011.588	1666.21
1011.881	1672.99
1012.173	1643.84
1012.466	1654.91
1012.759	1613.11
1013.052	1645.65
1013.344	1625.31
1013.637	1607.01
1013.93	1620.34
1014.222	1599.32
1014.514	1583.28
1014.807	1587.57
1015.099	1587.12
1015.391	1557.74
1015.683	1578.53
1015.976	1575.37
1016.268	1568.36
1016.56	1511.87
1016.851	1494.01
1017.143	1508.25
1017.435	1495.14
1017.727	1490.17
1018.018	1498.31
1018.31	1471.64
1018.602	1456.05
1018.893	1487.46
1019.185	1467.8
1019.476	1444.07
1019.767	1456.5
1020.058	1410.85
1020.35	1410.17
1020.641	1404.53
1020.932	1386.45
1021.223	1414.92
1021.514	1382.6
1021.804	1375.6
1022.095	1364.53
1022.386	1370.85
1022.677	1346.67
1022.967	1339.44
1023.258	1308.93
1023.548	1318.88
1023.839	1337.86
1024.129	1294.25
1024.419	1288.14
1024.709	1288.6
1025	1278.88
1025.29	1257.41
1025.58	1254.92
1025.87	1251.31
1026.16	1283.85
1026.449	1259.67
1026.739	1216.73
1027.029	1230.74
1027.319	1212.67
1027.608	1212.44
1027.898	1214.25
1028.187	1173.8
1028.477	1188.94
1028.766	1190.52
1029.055	1148.49
1029.344	1140.13
1029.634	1153.01
1029.923	1139.67
1030.212	1123.85
1030.501	1138.32
1030.79	1144.42
1031.078	1102.39
1031.367	1134.02
1031.656	1100.58
1031.945	1108.49
1032.233	1093.35
1032.522	1090.41
1032.81	1095.83
1033.099	1092.22
1033.387	1058.77
1033.675	1064.87
1033.963	1063.29
1034.251	1051.09
1034.54	1038.21
1034.828	1026.91
1035.116	1007.7
1035.403	1032.78
1035.691	996.17
1035.979	1015.16
1036.267	1006.34
1036.554	998.89
1036.842	976.51
1037.129	995.04
1037.417	988.72
1037.704	967.93
1037.992	973.12
1038.279	974.25
1038.566	956.4
1038.853	956.4
1039.14	956.4
