Data from 350_FLMS001491_005.txt Node
Date: Thu Apr 19 15:44:34 BST 2018
User: hsy
Spectrometer: FLMS00149
Trigger mode: 0
Integration Time (sec): 1.000000E-2
Scans to average: 10
Electric dark correction enabled: true
Nonlinearity correction enabled: false
Boxcar width: 0
XAxis mode: Wavelengths
Number of Pixels in Spectrum: 2048
>>>>>Begin Spectral Data<<<<<
341.393	-3.52
341.776	-3.52
342.16	-3.52
342.543	-71.99
342.927	-78.54
343.31	-64.76
343.693	-48.71
344.077	-68.83
344.46	-56.62
344.843	-30.86
345.226	-64.53
345.61	-32.89
345.993	-20.01
346.376	2.58
346.759	9.14
347.142	18.63
347.525	41
347.908	44.62
348.291	79.87
348.674	86.88
349.057	104.5
349.44	118.51
349.823	119.87
350.206	140.43
350.588	181.34
350.971	205.29
351.354	258.62
351.737	245.97
352.119	244.61
352.502	274.89
352.884	310.83
353.267	307.89
353.65	325.97
354.032	318.73
354.414	300.43
354.797	330.03
355.179	352.41
355.562	332.29
355.944	343.82
356.326	341.33
356.709	331.39
357.091	350.37
357.473	354.89
357.855	370.26
358.238	342.01
358.62	357.15
359.002	346.53
359.384	371.84
359.766	351.28
360.148	365.96
360.53	367.77
360.912	346.98
361.294	365.29
361.676	343.37
362.057	355.12
362.439	352.18
362.821	339.52
363.203	343.37
363.584	349.02
363.966	336.36
364.348	333.2
364.729	364.38
365.111	364.61
365.493	333.2
365.874	351.05
366.256	354.21
366.637	337.72
367.019	364.61
367.4	375.23
367.781	360.54
368.163	356.93
368.544	350.15
368.925	347.43
369.306	359.41
369.688	361.67
370.069	348.34
370.45	344.27
370.831	346.08
371.212	350.37
371.593	355.57
371.974	365.06
372.355	352.41
372.736	366.19
373.117	360.99
373.498	360.77
373.879	369.13
374.26	358.51
374.641	351.05
375.021	358.28
375.402	364.16
375.783	380.65
376.163	387.43
376.544	396.25
376.925	381.56
377.305	371.39
377.686	377.49
378.066	396.92
378.447	380.88
378.827	381.11
379.208	391.5
379.588	390.6
379.968	396.7
380.349	386.76
380.729	375.23
381.109	428.56
381.489	395.79
381.87	389.69
382.25	393.76
382.63	386.08
383.01	396.47
383.39	402.57
383.77	418.62
384.15	419.07
384.53	421.33
384.91	420.65
385.29	451.84
385.67	434.89
386.049	454.32
386.429	452.29
386.809	408.9
387.189	445.51
387.568	445.96
387.948	437.15
388.328	432.63
388.707	447.54
389.087	461.33
389.466	446.64
389.846	464.95
390.225	449.58
390.605	472.63
390.984	474.66
391.363	478.5
391.743	466.98
392.122	488.9
392.501	493.87
392.881	496.36
393.26	474.21
393.639	515.79
394.018	471.72
394.397	477.83
394.776	495.68
395.155	505.4
395.534	498.16
395.913	525.51
396.292	503.14
396.671	516.7
397.05	551.95
397.429	523.93
397.808	518.28
398.186	520.76
398.565	542.68
398.944	524.83
399.323	533.42
399.701	534.55
400.08	531.16
400.458	546.07
400.837	562.12
401.215	556.69
401.594	533.87
401.972	560.99
402.351	574.55
402.729	567.54
403.107	555.56
403.486	567.77
403.864	585.62
404.242	572.97
404.62	594.21
404.999	588.78
405.377	596.24
405.755	603.7
406.133	604.83
406.511	619.07
406.889	618.39
407.267	625.17
407.645	635.79
408.023	620.87
408.401	640.31
408.779	645.28
409.156	666.52
409.534	660.42
409.912	676.47
410.29	674.43
410.667	700.19
411.045	687.09
411.422	675.56
411.8	707.65
412.178	711.27
412.555	690.25
412.933	719.18
413.31	723.47
413.687	739.97
414.065	746.07
414.442	752.17
414.819	757.14
415.197	768.89
415.574	773.64
415.951	774.09
416.328	803.24
416.705	787.87
417.082	792.17
417.46	803.02
417.837	824.48
418.214	802.11
418.591	797.37
418.967	815.22
419.344	819.51
419.721	837.59
420.098	839.85
420.475	826.74
420.852	851.15
421.228	868.78
421.605	873.97
421.982	884.82
422.358	899.96
422.735	885.05
423.111	891.6
423.488	900.87
423.864	893.63
424.241	907.19
424.617	939.96
424.994	918.04
425.37	953.52
425.746	941.54
426.123	945.84
426.499	962.56
426.875	993.52
427.251	958.72
427.627	990.36
428.003	1019.06
428.379	1009.79
428.756	1052.05
429.132	1038.04
429.507	1059.28
429.883	1055.89
430.259	1076.23
430.635	1075.55
431.011	1116.45
431.387	1116.68
431.763	1157.36
432.138	1140.63
432.514	1146.74
432.89	1155.32
433.265	1163.68
433.641	1180.18
434.016	1177.02
434.392	1216.79
434.767	1231.93
435.143	1232.83
435.518	1241.65
435.894	1235.32
436.269	1270.57
436.644	1268.54
437.02	1321.65
437.395	1306.51
437.77	1315.77
438.145	1320.29
438.52	1328.88
438.895	1367.52
439.271	1345.83
439.646	1380.4
440.021	1397.8
440.395	1408.42
440.77	1348.31
441.145	1388.99
441.52	1394.19
441.895	1394.19
442.27	1454.75
442.645	1428.31
443.019	1451.36
443.394	1463.11
443.769	1434.41
444.143	1481.19
444.518	1497.01
444.892	1473.05
445.267	1510.34
445.641	1515.99
446.016	1508.31
446.39	1539.72
446.764	1537.23
447.139	1487.52
447.513	1536.33
447.887	1520.74
448.262	1547.85
448.636	1572.03
449.01	1569.1
449.384	1586.95
449.758	1587.4
450.132	1611.81
450.506	1625.37
450.88	1642.54
451.254	1642.54
451.628	1688.64
452.002	1696.78
452.376	1706.49
452.75	1710.56
453.123	1730.22
453.497	1777.23
453.871	1765.7
454.244	1792.82
454.618	1809.99
454.992	1835.76
455.365	1837.56
455.739	1859.49
456.112	1869.43
456.486	1932.25
456.859	1938.35
457.232	1963.66
457.606	1982.87
457.979	2026.94
458.352	2055.19
458.725	2061.74
459.099	2054.96
459.472	2104.68
459.845	2141.29
460.218	2175.18
460.591	2169.08
460.964	2179.48
461.337	2238.01
461.71	2232.36
462.083	2256.99
462.456	2306.93
462.829	2307.38
463.201	2377.21
463.574	2356.87
463.947	2390.09
464.32	2418.11
464.692	2450.66
465.065	2475.51
465.438	2509.41
465.81	2512.35
466.183	2569.75
466.555	2586.7
466.928	2635.06
467.3	2598.22
467.672	2656.75
468.045	2692.23
468.417	2713.02
468.789	2739.46
469.161	2767.94
469.534	2846.35
469.906	2860.81
470.278	2880.02
470.65	2906.24
471.022	2961.6
471.394	3006.35
471.766	3014.26
472.138	3055.61
472.51	3120.47
472.882	3178.77
473.253	3186.68
473.625	3264.42
473.997	3330.18
474.369	3315.72
474.74	3377.86
475.112	3430.52
475.484	3437.97
475.855	3562.27
476.227	3581.93
476.598	3658.08
476.97	3674.35
477.341	3784.41
477.713	3838.42
478.084	3867.12
478.455	3975.36
478.827	3952.54
479.198	4082.93
479.569	4089.03
479.94	4222.13
480.311	4284.96
480.682	4399.08
481.053	4433.65
481.424	4557.95
481.795	4569.92
482.166	4602.24
482.537	4710.94
482.908	4842.68
483.279	4868.45
483.65	4953.19
484.021	5050.59
484.391	5084.03
484.762	5225.05
485.133	5241.77
485.503	5305.04
485.874	5497.58
486.244	5462.1
486.615	5555.66
486.985	5667.29
487.356	5771.7
487.726	5880.17
488.097	6008.98
488.467	6022.31
488.837	6092.37
489.207	6186.83
489.578	6321.51
489.948	6363.55
490.318	6546.14
490.688	6583.88
491.058	6683.31
491.428	6735.51
491.798	6790.2
492.168	6959.24
492.538	7020.71
492.908	7117.65
493.278	7205.56
493.648	7273.81
494.017	7348.38
494.387	7480.13
494.757	7429.96
495.126	7642.38
495.496	7681.93
495.866	7739.33
496.235	7883.06
496.605	8014.8
496.974	8002.15
497.344	8140
497.713	8180.45
498.082	8219.32
498.452	8363.49
498.821	8478.07
499.19	8486.66
499.559	8559.2
499.928	8649.81
500.298	8729.36
500.667	8832.63
501.036	8785.4
501.405	8921.22
501.774	8951.5
502.143	9062.01
502.512	9148.33
502.88	9325.5
503.249	9237.37
503.618	9367.99
503.987	9421.77
504.356	9529.34
504.724	9623.35
505.093	9612.5
505.462	9758.49
505.83	9757.13
506.199	9915.77
506.567	10008.88
506.936	10020.17
507.304	10163.45
507.672	10197.12
508.041	10298.36
508.409	10395.53
508.777	10509.43
509.145	10644.11
509.514	10635.3
509.882	10725.92
510.25	10800.04
510.618	10850.44
510.986	10958.45
511.354	11024.67
511.722	11115.51
512.09	11214.04
512.458	11190.54
512.826	11426.47
513.193	11457.2
513.561	11491.55
513.929	11558.89
514.297	11745.1
514.664	11826.91
515.032	11911.42
515.4	12011.76
515.767	12134.92
516.135	12194.58
516.502	12104.19
516.869	12351.19
517.237	12436.61
517.604	12369.49
517.972	12594.34
518.339	12639.99
518.706	12702.82
519.073	12775.36
519.44	12985.75
519.808	13055.57
520.175	13119.75
520.542	13306.19
520.909	13405.17
521.276	13406.98
521.643	13571.04
522.009	13612.17
522.376	13833.63
522.743	13879.73
523.11	14131.93
523.477	14153.17
523.843	14298.48
524.21	14464.8
524.577	14433.62
524.943	14658.7
525.31	14665.93
525.676	14896.66
526.043	15081.51
526.409	15095.52
526.776	15267.04
527.142	15352.01
527.508	15458
527.874	15606.02
528.241	15815.05
528.607	15692.57
528.973	15997.87
529.339	16001.94
529.705	16146.79
530.071	16389.95
530.437	16353.79
530.803	16515.6
531.169	16620.9
531.535	16688.7
531.901	16760.34
532.267	16875.14
532.632	16922.14
532.998	17020.89
533.364	17078.29
533.73	17168.46
534.095	17355.12
534.461	17252.07
534.826	17503.82
535.192	17488.45
535.557	17588.11
535.923	17567.32
536.288	17704.49
536.653	17836.24
537.019	17786.52
537.384	17865.39
537.749	17983.13
538.114	18100.87
538.479	18132.96
538.845	18140.86
539.21	18173.86
539.575	18279.17
539.94	18294.31
540.305	18461.53
540.67	18473.74
541.034	18588.99
541.399	18537.46
541.764	18612.72
542.129	18769.32
542.494	18734.52
542.858	18867.17
543.223	18735.2
543.587	18902.2
543.952	18961.86
544.316	19021.29
544.681	18917.79
545.045	19140.16
545.41	19160.05
545.774	19172.25
546.138	19283.66
546.503	19342.19
546.867	19339.48
547.231	19516.42
547.595	19463.09
547.959	19602.3
548.324	19606.81
548.688	19612.69
549.052	19753.93
549.416	19673.93
549.779	19722.97
550.143	19791.44
550.507	19912.12
550.871	20002.96
551.235	19998.67
551.599	20259.68
551.962	20208.38
552.326	20236.63
552.689	20339
553.053	20242.28
553.417	20395.72
553.78	20641.59
554.143	20656.28
554.507	20691.31
554.87	20749.61
555.234	21044.74
555.597	20813.11
555.96	20882.26
556.323	21129.71
556.686	21136.49
557.05	21248.35
557.413	21313.89
557.776	21270.73
558.139	21432.53
558.502	21483.6
558.865	21560.66
559.228	21821.9
559.59	21755.23
559.953	21932.18
560.316	22185.73
560.679	22130.14
561.041	22340.08
561.404	22459.4
561.767	22514.31
562.129	22455.78
562.492	22833.17
562.854	22737.81
563.217	22763.79
563.579	22875.88
563.941	23065.71
564.304	23313.61
564.666	23256.89
565.028	23284.68
565.39	23581.4
565.753	23620.95
566.115	23717.44
566.477	23863.88
566.839	23994.04
567.201	24163.98
567.563	24103.19
567.925	24411.43
568.287	24315.62
568.648	24468.61
569.01	24551.32
569.372	24881.25
569.734	24900.91
570.095	25125.09
570.457	25149.95
570.819	25150.17
571.18	25215.71
571.542	25383.39
571.903	25385.19
572.265	25591.29
572.626	25723.94
572.987	25722.36
573.349	25920.77
573.71	25908.12
574.071	26076.25
574.432	26160.54
574.794	26392.17
575.155	26339.97
575.516	26350.59
575.877	26549.46
576.238	26574.32
576.599	26723.46
576.96	26747.87
577.32	26737.93
577.681	26937.7
578.042	26969.79
578.403	26960.75
578.763	27031.7
579.124	26977.47
579.485	27325.93
579.845	27273.73
580.206	27245.26
580.566	27227.41
580.927	27181.08
581.287	27468.08
581.648	27288.87
582.008	27520.96
582.368	27419.94
582.728	27320.28
583.089	27596.21
583.449	27549.66
583.809	27513.73
584.169	27577.23
584.529	27517.34
584.889	27801.63
585.249	27552.59
585.609	27438.25
585.969	27685.02
586.329	27401.64
586.688	27725.7
587.048	27551.24
587.408	27522.77
587.768	27570
588.127	27654.96
588.487	27461.75
588.846	27756.88
589.206	27522.31
589.565	27538.58
589.925	27635.3
590.284	27563.22
590.643	27474.18
591.003	27541.07
591.362	27720.73
591.721	27618.58
592.08	27617.68
592.44	27725.92
592.799	27617.68
593.158	27639.6
593.517	27468.08
593.876	27576.55
594.235	27601.41
594.593	27560.73
594.952	27577.9
595.311	27485.25
595.67	27598.92
596.029	27781.52
596.387	27709.88
596.746	27746.71
597.104	27637.34
597.463	27601.41
597.822	27900.61
598.18	27672.59
598.538	27760.72
598.897	27886.82
599.255	27617
599.613	27885.92
599.972	27691.57
600.33	27693.83
600.688	27697.22
601.046	27724.12
601.404	27885.92
601.762	27852.25
602.12	27934.28
602.478	27904.22
602.836	27999.59
603.194	27775.87
603.552	27906.71
603.91	27839.82
604.268	27939.48
604.625	27789.42
604.983	28066.48
605.341	27878.91
605.698	28128.17
606.056	28193.48
606.413	28049.53
606.771	28122.3
607.128	28244.1
607.485	28106.7
607.843	28023.09
608.2	28244.1
608.557	28278.68
608.914	28218.79
609.272	28433.93
609.629	28433.02
609.986	28486.81
610.343	28358.22
610.7	28672.57
611.057	28586.47
611.414	28417.88
611.771	28665.56
612.127	28692.9
612.484	28673.7
612.841	28821.04
613.198	28672.57
613.554	28682.73
613.911	28850.19
614.267	28883.86
614.624	28745.33
614.98	28919.34
615.337	29114.36
615.693	28979.22
616.05	29016.96
616.406	29059.67
616.762	29068.04
617.118	29046.79
617.475	29088.6
617.831	29197.3
618.187	29262.15
618.543	29225.32
618.899	29455.14
619.255	29358.65
619.611	29303.28
619.967	29501.24
620.323	29539.89
620.678	29416.05
621.034	29338.76
621.39	29388.93
621.746	29459.66
622.101	29616.95
622.457	29424.41
622.812	29562.49
623.168	29684.52
623.523	29687.91
623.879	29739.66
624.234	29547.12
624.589	29710.05
624.945	29769.03
625.3	29690.39
625.655	29702.59
626.01	29661.24
626.365	29771.52
626.72	29705.98
627.075	29555.93
627.43	29589.38
627.785	29655.14
628.14	29679.54
628.495	29673.44
628.85	29615.14
629.205	29672.31
629.559	29680.22
629.914	29517.06
630.269	29565.42
630.623	29470.06
630.978	29370.63
631.332	29664.63
631.687	29562.49
632.041	29488.82
632.396	29535.37
632.75	29392.09
633.104	29491.98
633.459	29329.5
633.813	29278.88
634.167	29207.92
634.521	29244.98
634.875	29361.36
635.229	29257.86
635.583	28997.3
635.937	29138.32
636.291	28990.75
636.645	29072.33
636.999	28900.81
637.352	29082.95
637.706	28819.91
638.06	28934.03
638.413	28884.99
638.767	28811.77
639.121	28908.72
639.474	28813.8
639.828	28629.85
640.181	28696.97
640.534	28716.41
640.888	28536.52
641.241	28377.66
641.594	28450.42
641.947	28579.23
642.301	28393.7
642.654	28480.25
643.007	28527.71
643.36	28484.55
643.713	28508.73
644.066	28503.53
644.419	28264.89
644.771	28039.59
645.124	27614.51
645.477	27705.59
645.83	27518.02
646.182	27601.41
646.535	27617.23
646.888	27751.46
647.24	27712.36
647.593	27748.97
647.945	27700.16
648.298	27522.09
648.65	27291.13
649.002	27066.51
649.355	26928.66
649.707	26805.27
650.059	26682.34
650.411	27246.16
650.763	27489.32
651.115	28019.93
651.467	27683.21
651.819	27730.44
652.171	27849.54
652.523	27666.49
652.875	27728.86
653.227	27565.48
653.578	27851.8
653.93	27769.99
654.282	27698.35
654.633	27607.06
654.985	27530.22
655.337	27715.98
655.688	27525.25
656.039	27737.9
656.391	27352.83
656.742	27367.29
657.094	27365.93
657.445	27498.36
657.796	27493.84
658.147	27357.57
658.498	27511.24
658.849	27499.49
659.2	27319.38
659.551	27317.8
659.902	27487.51
660.253	27336.1
660.604	27452.48
660.955	27402.32
661.306	27421.07
661.656	27375.88
662.007	27437.34
662.358	27412.71
662.708	27448.42
663.059	27454.97
663.409	27147.18
663.76	27434.41
664.11	27439.38
664.461	27622.42
664.811	27362.32
665.161	27363.67
665.511	27407.97
665.862	27371.13
666.212	27440.73
666.562	27439.38
666.912	27396.44
667.262	27222.21
667.612	27268.53
667.962	27370.9
668.312	27292.26
668.662	27439.38
669.011	27360.96
669.361	27399.6
669.711	27404.58
670.06	27332.26
670.41	27233.28
670.76	27267.86
671.109	27395.08
671.459	27319.38
671.808	27266.73
672.157	27302.43
672.507	27183.56
672.856	27184.47
673.205	27243.68
673.554	27381.07
673.904	27239.61
674.253	27367.97
674.602	27164.36
674.951	26831.94
675.3	26763.91
675.649	27094.98
675.998	27134.07
676.346	27261.98
676.695	27380.85
677.044	26966.17
677.393	27080.74
677.741	27325.48
678.09	27076.68
678.438	27086.84
678.787	27038.26
679.135	27005.04
679.484	26930.46
679.832	26937.02
680.181	26886.17
680.529	26978.15
680.877	26776.57
681.225	26813.63
681.573	26974.08
681.922	26733.18
682.27	26721.2
682.618	26565.95
682.966	26480.76
683.314	26668.78
683.661	26666.97
684.009	26572.73
684.357	26530.02
684.705	26415.68
685.053	26409.12
685.4	26331.16
685.748	26111.5
686.095	26164.83
686.443	25985.4
686.79	25949.25
687.138	26146.53
687.485	26017.27
687.832	25897.05
688.18	25951.51
688.527	25727.56
688.874	25703.38
689.221	25765.98
689.568	25667.9
689.915	25476.94
690.262	25637.16
690.609	25532.08
690.956	25267.91
691.303	25291.19
691.65	25194.92
691.997	25186.56
692.344	25125.99
692.69	24972.78
693.037	24980.01
693.383	24725.55
693.73	24871.76
694.077	24696.17
694.423	24594.48
694.769	24509.74
695.116	24486.69
695.462	24412.56
695.808	24268.84
696.155	24424.54
696.501	24198.78
696.847	24261.16
697.193	24006.93
697.539	24164.66
697.885	23857.78
698.231	23828.17
698.577	23791.11
698.923	23758.12
699.269	23591.57
699.614	23547.73
699.96	23569.2
700.306	23464.34
700.651	23300.5
700.997	23211.47
701.342	23234.29
701.688	23119.72
702.033	22999.95
702.379	23057.35
702.724	22888.08
703.069	23005.14
703.415	22758.14
703.76	22692.38
704.105	22676.34
704.45	22549.34
704.795	22591.37
705.14	22497.59
705.485	22409
705.83	22219.18
706.175	22480.41
706.52	22244.49
706.865	22125.62
707.209	22216.01
707.554	22020.99
707.899	22016.24
708.243	21991.16
708.588	21913.2
708.932	21809.92
709.277	21822.58
709.621	21751.17
709.966	21682.24
710.31	21655.12
710.654	21521.79
710.998	21581.23
711.342	21565.41
711.687	21418.29
712.031	21433.89
712.375	21327.45
712.719	21303.95
713.063	21196.83
713.407	21237.51
713.75	21167.68
714.094	21174.46
714.438	21087.23
714.782	21116.61
715.125	20950.51
715.469	21083.61
715.812	20823.05
716.156	20738.54
716.499	20912.09
716.843	20841.81
717.186	20826.22
717.53	20836.61
717.873	20852.43
718.216	20724.07
718.559	20734.02
718.902	20584.87
719.246	20620.35
719.589	20598.2
719.932	20479.56
720.275	20563.4
720.617	20490.86
720.96	20417.42
721.303	20476.4
721.646	20496.74
721.989	20387.81
722.331	20498.77
722.674	20326.8
723.016	20394.82
723.359	20354.82
723.701	20285.89
724.044	20292.9
724.386	20198.89
724.729	20250.19
725.071	20275.5
725.413	20277.98
725.755	20269.62
726.097	20102.85
726.439	20029.18
726.782	20041.15
727.124	20171.32
727.465	20006.13
727.807	19976.3
728.149	19975.17
728.491	19830.09
728.833	20048.39
729.175	19948.27
729.516	19890.2
729.858	19857.2
730.199	19988.5
730.541	19962.06
730.882	19922.29
731.224	19996.41
731.565	19849.97
731.906	19789.18
732.248	19983.08
732.589	19847.26
732.93	19886.36
733.271	19884.55
733.612	19893.14
733.953	19951.21
734.294	19905.11
734.635	19735.17
734.976	19888.62
735.317	19754.16
735.658	19783.76
735.999	19718
736.339	19745.12
736.68	19816.53
737.021	19719.58
737.361	19761.61
737.702	19867.83
738.042	19753.48
738.383	19715.96
738.723	19808.39
739.063	19725
739.404	19769.07
739.744	19751.44
740.084	19683.88
740.424	19831.67
740.764	19780.14
741.104	19885.68
741.444	19806.58
741.784	19826.92
742.124	19818.33
742.464	19778.56
742.804	19790.99
743.143	19716.64
743.483	19737.88
743.823	19661.73
744.162	19734.27
744.502	19792.12
744.841	19715.29
745.181	19995.51
745.52	19823.08
745.86	19908.95
746.199	19836.87
746.538	19947.82
746.877	20013.58
747.216	19928.39
747.556	19935.62
747.895	20029.85
748.234	19965.22
748.573	20123.86
748.911	19984.66
749.25	20077.31
749.589	20011.55
749.928	20177.42
750.267	20174.94
750.605	20092
750.944	20129.97
751.283	20199.57
751.621	20412.44
751.96	20261.49
752.298	20326.34
752.636	20252
752.975	20304.65
753.313	20264.88
753.651	20383.52
753.989	20468.94
754.327	20411.31
754.666	20249.06
755.004	20412.9
755.342	20459.45
755.679	20498.09
756.017	20510.75
756.355	20590.97
756.693	20517.3
757.031	20628.26
757.368	20563.17
757.706	20559.33
758.044	20479.79
758.381	20554.36
758.719	20531.08
759.056	20563.85
759.394	20579.22
759.731	20576.73
760.068	20586.45
760.405	20688.82
760.743	20513.23
761.08	20648.37
761.417	20570.86
761.754	20558.43
762.091	20498.99
762.428	20504.64
762.765	20473.68
763.102	20557.07
763.438	20460.13
763.775	20390.75
764.112	20428.49
764.449	20469.39
764.785	20490.86
765.122	20336.06
765.458	20254.48
765.795	20389.17
766.131	20293.35
766.467	20167.03
766.804	20198.21
767.14	20139.91
767.476	20082.51
767.812	20140.13
768.148	20131.09
768.485	20034.15
768.821	19910.31
769.157	19833.93
769.492	19860.37
769.828	19763.65
770.164	19637.1
770.5	19597.78
770.836	19703.99
771.171	19600.49
771.507	19425.12
771.842	19395.3
772.178	19482.07
772.513	19352.36
772.849	19302.64
773.184	19261.29
773.519	19327.95
773.855	19219.93
774.19	19129.99
774.525	19041.41
774.86	19002.31
775.195	19025.59
775.53	18943.33
775.865	18775.88
776.2	18699.27
776.535	18669.89
776.87	18653.62
777.205	18482.78
777.539	18510.8
777.874	18514.64
778.209	18344.25
778.543	18289.11
778.878	18283.69
779.212	18246.62
779.547	18090.7
779.881	18149
780.215	18067.19
780.55	18104.03
780.884	17869.69
781.218	17865.62
781.552	17853.19
781.886	17726.86
782.22	17668.79
782.554	17599.86
782.888	17420.88
783.222	17559.64
783.556	17360.77
783.889	17448
784.223	17249.36
784.557	17209.36
784.89	17309.25
785.224	17135.47
785.557	17132.76
785.891	17031.97
786.224	16992.87
786.558	17048.01
786.891	16755.14
787.224	16800.79
787.557	16726.21
787.891	16617.06
788.224	16615.93
788.557	16605.99
788.89	16484.86
789.223	16516.5
789.556	16343.62
789.888	16370.29
790.221	16219.11
790.554	16167.81
790.887	16206.45
791.219	16078.55
791.552	16033.58
791.884	15952.45
792.217	15933.47
792.549	15930.75
792.882	15736.18
793.214	15636.3
793.546	15740.25
793.879	15716.75
794.211	15537.77
794.543	15633.36
794.875	15501.39
795.207	15528.28
795.539	15446.25
795.871	15434.95
796.203	15374.16
796.535	15206.25
796.867	15286.93
797.198	15110.21
797.53	15139.36
797.862	15079.25
798.193	15092.58
798.525	15004.22
798.856	15073.83
799.188	14894.4
799.519	14817.11
799.85	14723.33
800.182	14750.9
800.513	14826.83
800.844	14638.36
801.175	14703.67
801.506	14595.2
801.837	14623.9
802.168	14555.65
802.499	14542.32
802.83	14417.57
803.161	14450.11
803.491	14321.76
803.822	14464.13
804.153	14286.28
804.483	14178.48
804.814	14176.22
805.145	14254.19
805.475	14175.32
805.805	14093.51
806.136	14081.31
806.466	14103.68
806.796	13970.58
807.126	13895.33
807.457	13921.99
807.787	13896.23
808.117	13897.36
808.447	13690.59
808.777	13775.56
809.107	13638.38
809.436	13712.73
809.766	13707.08
810.096	13714.09
810.426	13644.49
810.755	13642.45
811.085	13579.18
811.414	13558.16
811.744	13590.93
812.073	13461.67
812.403	13415.11
812.732	13261.45
813.061	13453.98
813.39	13252.63
813.719	13223.71
814.049	13348.67
814.378	13245.4
814.707	13193.2
815.036	13158.62
815.365	13088.12
815.693	13087.44
816.022	13039.08
816.351	13053.09
816.68	13047.21
817.008	13050.15
817.337	12935.35
817.665	12936.93
817.994	12955.01
818.322	12958.4
818.651	12917.95
818.979	12815.81
819.307	12785.07
819.636	12782.14
819.964	12697.84
820.292	12736.26
820.62	12827.33
820.948	12863.94
821.276	12934.67
821.604	12810.84
821.932	12771.74
822.259	12699.43
822.587	12785.07
822.915	12670.73
823.243	12743.27
823.57	12662.36
823.898	12664.4
824.225	12818.74
824.553	12724.74
824.88	12793.66
825.207	12784.85
825.535	12660.78
825.862	12655.81
826.189	12703.27
826.516	12819.65
826.843	12779.42
827.17	12805.41
827.497	12737.17
827.824	12792.3
828.151	12841.34
828.478	12721.8
828.805	12814.23
829.131	12776.94
829.458	12709.37
829.785	12651.74
830.111	12795.24
830.438	12757.05
830.764	12829.14
831.09	12816.26
831.417	12705.98
831.743	12803.15
832.069	12768.35
832.395	12731.29
832.722	12784.85
833.048	12748.92
833.374	12789.37
833.7	12664.17
834.026	12688.13
834.351	12719.54
834.677	12775.81
835.003	12688.13
835.329	12622.14
835.654	12681.12
835.98	12541.24
836.306	12717.96
836.631	12524.06
836.956	12632.08
837.282	12599.54
837.607	12620.33
837.932	12553.44
838.258	12504.18
838.583	12530.62
838.908	12464.4
839.233	12462.37
839.558	12421.69
839.883	12403.84
840.208	12362.94
840.533	12385.31
840.858	12445.2
841.182	12404.29
841.507	12389.83
841.832	12237.74
842.156	12241.81
842.481	12227.12
842.805	12250.62
843.13	12193.9
843.454	12222.38
843.778	12140.8
844.103	12153.23
844.427	12113.45
844.751	12106.22
845.075	12120.68
845.399	12041.14
845.723	11890.41
846.047	11960.24
846.371	11894.02
846.695	11853.57
847.019	11813.35
847.343	11782.61
847.666	11729.51
847.99	11686.12
848.313	11684.31
848.637	11580.13
848.96	11553.47
849.284	11597.53
849.607	11522.73
849.931	11477.31
850.254	11419.23
850.577	11371.55
850.9	11295.4
851.223	11272.8
851.546	11240.26
851.869	11137.89
852.192	11205.91
852.515	11090.65
852.838	11092.69
853.161	11021.05
853.483	11015.85
853.806	10961.17
854.129	10905.35
854.451	10852.69
854.774	10854.95
855.096	10774.5
855.419	10767.27
855.741	10744.68
856.063	10655.64
856.385	10681.17
856.708	10721.4
857.03	10624.9
857.352	10603.66
857.674	10551.69
857.996	10492.03
858.318	10440.28
858.64	10420.16
858.961	10408.86
859.283	10437.11
859.605	10324.12
859.926	10433.5
860.248	10312.37
860.57	10261.52
860.891	10261.75
861.212	10256.33
861.534	10179.94
861.855	10184.46
862.176	10204.58
862.498	10179.49
862.819	10138.82
863.14	10086.39
863.461	10131.36
863.782	10068.99
864.103	10083.68
864.424	10095.2
864.745	10107.4
865.065	10060.63
865.386	9960.97
865.707	10009.1
866.027	9994.64
866.348	9968.42
866.668	9926.17
866.989	9871.03
867.309	9831.03
867.63	9866.05
867.95	9815.21
868.27	9795.32
868.59	9867.86
868.91	9741.54
869.23	9829.44
869.55	9694.99
869.87	9736.11
870.19	9724.59
870.51	9730.46
870.83	9673.97
871.15	9631.71
871.469	9600.52
871.789	9715.78
872.109	9638.94
872.428	9585.16
872.748	9659.96
873.067	9557.59
873.386	9591.71
873.706	9597.13
874.025	9568.21
874.344	9555.78
874.663	9537.7
874.982	9495.89
875.301	9515.55
875.62	9506.06
875.939	9376.8
876.258	9405.05
876.577	9377.03
876.896	9409.79
877.214	9337.48
877.533	9365.73
877.852	9386.07
878.17	9386.07
878.489	9429
878.807	9326.86
879.125	9291.83
879.444	9284.6
879.762	9241.89
880.08	9233.98
880.398	9165.96
880.716	9202.34
881.034	9196.24
881.352	9206.64
881.67	9235.11
881.988	9182.46
882.306	9134.1
882.624	9109.69
882.941	9091.84
883.259	9073.76
883.577	9094.1
883.894	8977.72
884.212	9013.65
884.529	9036.02
884.846	8952.18
885.164	8968
885.481	8909.92
885.798	8901.79
886.115	8963.93
886.432	8899.75
886.75	8855.23
887.067	8874.67
887.383	8878.06
887.7	8891.62
888.017	8744.28
888.334	8691.62
888.651	8711.28
888.967	8785.4
889.284	8722.58
889.6	8607.33
889.917	8660.21
890.233	8659.76
890.55	8637.61
890.866	8590.61
891.182	8608.46
891.498	8533.66
891.815	8484.4
892.131	8425.41
892.447	8477.84
892.763	8491.63
893.079	8425.41
893.395	8369.14
893.71	8432.19
894.026	8295.02
894.342	8335.92
894.657	8302.25
894.973	8288.24
895.289	8360.56
895.604	8311.07
895.92	8233.78
896.235	8208.24
896.55	8231.97
896.865	8104.97
897.181	8079.21
897.496	8118.08
897.811	8053.45
898.126	8035.59
898.441	8017.74
898.756	7988.36
899.071	7938.2
899.386	7965.99
899.7	7950.85
900.015	7809.39
900.33	7825.43
900.644	7829.5
900.959	7814.58
901.273	7750.86
901.588	7707.92
901.902	7722.61
902.216	7680.8
902.531	7636.51
902.845	7582.72
903.159	7617.3
903.473	7604.64
903.787	7540.01
904.101	7517.19
904.415	7501.6
904.729	7483.97
905.042	7338.66
905.356	7446
905.67	7390.41
905.984	7436.74
906.297	7387.93
906.611	7348.38
906.924	7313.13
907.237	7303.18
907.551	7243.3
907.864	7213.92
908.177	7215.5
908.491	7192.9
908.804	7072
909.117	7088.95
909.43	7020.71
909.743	6996.53
910.056	6985.23
910.368	6992.46
910.681	6961.27
910.994	6983.42
911.307	6887.83
911.619	6826.81
911.932	6891.9
912.244	6754.95
912.557	6812.35
912.869	6748.17
913.181	6739.81
913.494	6706.14
913.806	6672.92
914.118	6582.52
914.43	6597.44
914.742	6607.83
915.054	6543.88
915.366	6527.38
915.678	6486.93
915.99	6487.39
916.302	6547.05
916.613	6434.05
916.925	6463.66
917.236	6460.49
917.548	6389.31
917.859	6401.06
918.171	6349.31
918.482	6286.94
918.794	6338.92
919.105	6231.12
919.416	6253.27
919.727	6213.49
920.038	6181.18
920.349	6148.41
920.66	6146.38
920.971	6127.62
921.282	6081.29
921.593	6104.57
921.903	6061.41
922.214	6057.11
922.525	6003.1
922.835	5991.58
923.146	5890.57
923.456	5940.51
923.767	5909.55
924.077	5887.4
924.387	5867.29
924.697	5869.32
925.008	5808.99
925.318	5824.58
925.628	5763.11
925.938	5747.74
926.248	5754.52
926.558	5669.55
926.867	5673.62
927.177	5613.74
927.487	5571.93
927.796	5587.75
928.106	5593.62
928.416	5558.82
928.725	5520.41
929.034	5539.39
929.344	5463.91
929.653	5473.85
929.962	5433.18
930.271	5396.12
930.581	5394.76
930.89	5340.3
931.199	5311.37
931.508	5300.07
931.817	5336
932.125	5253.75
932.434	5308.66
932.743	5209
933.051	5190.7
933.36	5191.6
933.669	5135.11
933.977	5191.37
934.286	5074.99
934.594	5131.94
934.902	5109.12
935.21	5021.21
935.519	5031.6
935.827	5040.64
936.135	4998.61
936.443	4957.48
936.751	4982.34
937.059	4952.06
937.367	4908.22
937.674	4925.17
937.982	4913.42
938.29	4857.37
938.597	4884.94
938.905	4821.67
939.213	4778.96
939.52	4777.15
939.827	4743.93
940.135	4727.43
940.442	4678.39
940.749	4701.44
941.056	4707.09
941.363	4656.47
941.67	4654.21
941.977	4596.36
942.284	4603.14
942.591	4633.65
942.898	4507.32
943.205	4564.72
943.511	4562.01
943.818	4536.25
944.125	4470.26
944.431	4426.2
944.738	4435.69
945.044	4442.92
945.35	4360.89
945.657	4380.32
945.963	4390.49
946.269	4312.3
946.575	4335.58
946.881	4342.81
947.187	4328.57
947.493	4286.31
947.799	4264.62
948.105	4250.83
948.41	4209.71
948.716	4202.7
949.022	4145.75
949.327	4206.54
949.633	4142.59
949.938	4127.22
950.244	4186.66
950.549	4097.84
950.854	4074.34
951.16	4050.16
951.465	4036.6
951.77	4011.74
952.075	4020.33
952.38	4036.15
952.685	3967.68
952.99	3958.86
953.294	3959.99
953.599	3960.67
953.904	3926.55
954.209	3901.24
954.513	3935.59
954.818	3911.18
955.122	3879.32
955.426	3864.63
955.731	3860.79
956.035	3804.52
956.339	3780.56
956.643	3785.08
956.948	3749.83
957.252	3800.45
957.556	3776.04
957.86	3722.71
958.163	3712.54
958.467	3712.54
958.771	3682.49
959.075	3731.75
959.378	3659.66
959.682	3672.09
959.985	3592.77
960.289	3607.69
960.592	3560.23
960.896	3545.99
961.199	3551.64
961.502	3562.72
961.805	3515.49
962.108	3502.61
962.411	3530.85
962.714	3501.48
963.017	3436.17
963.32	3435.49
963.623	3423.51
963.926	3402.72
964.228	3399.56
964.531	3414.02
964.833	3421.03
965.136	3367.69
965.438	3315.49
965.741	3317.07
966.043	3321.82
966.345	3335.83
966.648	3288.6
966.95	3280.24
967.252	3261.48
967.554	3249.28
967.856	3212.9
968.158	3206.79
968.46	3199.11
968.761	3200.47
969.063	3201.82
969.365	3170.41
969.666	3127.47
969.968	3106.68
970.269	3124.99
970.571	3108.04
970.872	3114.59
971.174	3084.09
971.475	3043.63
971.776	3074.37
972.077	3031.66
972.378	3051.54
972.679	3045.89
972.98	3002.28
973.281	2992.79
973.582	2964.77
973.883	2961.83
974.183	2917.76
974.484	2960.7
974.785	2913.69
975.085	2938.55
975.386	2923.86
975.686	2890.64
975.986	2880.02
976.287	2886.8
976.587	2860.59
976.887	2862.4
977.187	2880.7
977.487	2818.56
977.787	2802.74
978.087	2783.75
978.387	2810.19
978.687	2766.81
978.987	2760.25
979.286	2736.07
979.586	2741.04
979.885	2760.48
980.185	2742.63
980.484	2713.7
980.784	2704.43
981.083	2673.7
981.382	2710.08
981.682	2662.4
981.981	2663.53
982.28	2684.55
982.579	2640.48
982.878	2618.11
983.177	2607.94
983.475	2604.55
983.774	2585.79
984.073	2599.13
984.372	2553.93
984.67	2546.02
984.969	2536.98
985.267	2578.11
985.566	2522.29
985.864	2518.68
986.162	2502.86
986.461	2459.7
986.759	2492.24
987.057	2469.64
987.355	2480.26
987.653	2447.94
987.951	2419.7
988.249	2432.8
988.547	2417.21
988.844	2415.85
989.142	2411.79
989.44	2438
989.737	2400.49
990.035	2377.89
990.332	2392.8
990.63	2343.54
990.927	2352.81
991.224	2364.1
991.521	2297.44
991.819	2277.55
992.116	2303.77
992.413	2305.12
992.71	2268.51
993.006	2256.76
993.303	2250.44
993.6	2256.31
993.897	2250.44
994.193	2247.5
994.49	2215.63
994.787	2211.79
995.083	2210.89
995.379	2197.56
995.676	2176.31
995.972	2164.79
996.268	2137.22
996.565	2143.55
996.861	2129.53
997.157	2164.79
997.453	2122.98
997.749	2099.93
998.044	2094.73
998.34	2082.76
998.636	2066.94
998.932	2083.43
999.227	2062.19
999.523	2032.36
999.818	2042.31
1000.114	2028.75
1000.409	1991.68
1000.704	1996.88
1001	2007.5
1001.295	1985.58
1001.59	1978.13
1001.885	1985.81
1002.18	1977.45
1002.475	1955.53
1002.77	1939.03
1003.065	1933.16
1003.359	1908.98
1003.654	1889.09
1003.949	1910.11
1004.243	1912.36
1004.538	1899.03
1004.832	1867.85
1005.127	1855.19
1005.421	1863.78
1005.715	1831.92
1006.009	1845.47
1006.304	1826.27
1006.598	1809.09
1006.892	1803.22
1007.186	1782.2
1007.48	1766.15
1007.773	1782.65
1008.067	1773.61
1008.361	1750.34
1008.655	1705.59
1008.948	1718.25
1009.242	1695.87
1009.535	1703.78
1009.829	1695.2
1010.122	1710.79
1010.415	1695.65
1010.708	1627.17
1011.001	1653.16
1011.295	1672.37
1011.588	1655.2
1011.881	1635.08
1012.173	1632.15
1012.466	1611.36
1012.759	1588.08
1013.052	1630.79
1013.344	1579.27
1013.637	1553.05
1013.93	1565.48
1014.222	1575.2
1014.514	1551.47
1014.807	1557.8
1015.099	1524.58
1015.391	1534.07
1015.683	1520.96
1015.976	1521.19
1016.268	1500.85
1016.56	1502.66
1016.851	1456.56
1017.143	1471.7
1017.435	1464.02
1017.727	1427.41
1018.018	1480.51
1018.31	1461.08
1018.602	1433.96
1018.893	1462.43
1019.185	1392.83
1019.476	1420.85
1019.767	1401.42
1020.058	1372.27
1020.35	1387.18
1020.641	1372.94
1020.932	1384.02
1021.223	1352.61
1021.514	1363.9
1021.804	1349.67
1022.095	1351.48
1022.386	1318.03
1022.677	1308.99
1022.967	1317.58
1023.258	1311.93
1023.548	1296.79
1023.839	1288.65
1024.129	1263.34
1024.419	1261.53
1024.709	1269.22
1025	1241.65
1025.29	1231.03
1025.58	1238.71
1025.87	1224.25
1026.16	1205.72
1026.449	1194.64
1026.739	1203.68
1027.029	1190.8
1027.319	1182.21
1027.608	1191.03
1027.898	1200.75
1028.187	1174.08
1028.477	1160.29
1028.766	1149.9
1029.055	1163.68
1029.344	1127.53
1029.634	1144.93
1029.923	1133.4
1030.212	1123.01
1030.501	1108.77
1030.79	1116.68
1031.078	1123.01
1031.367	1094.53
1031.656	1075.32
1031.945	1073.07
1032.233	1056.34
1032.522	1069.22
1032.81	1045.04
1033.099	1039.62
1033.387	1049.79
1033.675	1017.47
1033.963	1035.33
1034.251	1029.45
1034.54	1023.57
1034.828	999.17
1035.116	1009.34
1035.403	1016.8
1035.691	973.63
1035.979	992.39
1036.267	988.77
1036.554	979.28
1036.842	964.82
1037.129	952.62
1037.417	957.59
1037.704	942
1037.992	942.9
1038.279	927.53
1038.566	931.6
1038.853	931.6
1039.14	931.6
