Data from 350_FLMS001491_003.txt Node
Date: Thu Apr 19 15:44:25 BST 2018
User: hsy
Spectrometer: FLMS00149
Trigger mode: 0
Integration Time (sec): 1.000000E-2
Scans to average: 10
Electric dark correction enabled: true
Nonlinearity correction enabled: false
Boxcar width: 0
XAxis mode: Wavelengths
Number of Pixels in Spectrum: 2048
>>>>>Begin Spectral Data<<<<<
341.393	-9.48
341.776	-9.48
342.16	-9.48
342.543	-75.01
342.927	-77.72
343.31	-86.99
343.693	-71.62
344.077	-70.49
344.46	-65.75
344.843	-48.35
345.226	-31.4
345.61	-39.31
345.993	-8.8
346.376	18.09
346.759	21.03
347.142	13.8
347.525	34.14
347.908	63.29
348.291	75.94
348.674	82.05
349.057	114.36
349.44	137.86
349.823	136.28
350.206	165.43
350.588	190.29
350.971	238.43
351.354	258.31
351.737	270.29
352.119	260.8
352.502	290.4
352.884	306.22
353.267	301.48
353.65	312.32
354.032	314.58
354.414	321.36
354.797	331.76
355.179	354.81
355.562	353.68
355.944	367.46
356.326	364.75
356.709	370.17
357.091	350.06
357.473	367.24
357.855	379.89
358.238	363.62
358.62	363.62
359.002	365.88
359.384	359.55
359.766	378.31
360.148	342.83
360.53	353.45
360.912	378.99
361.294	358.42
361.676	386.22
362.057	363.39
362.439	370.63
362.821	359.1
363.203	377.18
363.584	381.25
363.966	371.53
364.348	357.29
364.729	359.55
365.111	368.82
365.493	355.26
365.874	365.65
366.256	351.64
366.637	364.07
367.019	335.15
367.4	341.47
367.781	355.03
368.163	363.39
368.544	349.61
368.925	368.37
369.306	349.38
369.688	357.97
370.069	375.15
370.45	351.64
370.831	364.52
371.212	370.4
371.593	376.5
371.974	353.9
372.355	362.94
372.736	373.56
373.117	363.62
373.498	385.31
373.879	360.68
374.26	364.3
374.641	362.72
375.021	358.87
375.402	348.93
375.783	381.47
376.163	365.88
376.544	396.39
376.925	388.03
377.305	402.26
377.686	388.93
378.066	400.91
378.447	397.97
378.827	385.77
379.208	390.51
379.588	383.28
379.968	386.67
380.349	406.33
380.729	406.78
381.109	391.42
381.489	393.22
381.87	413.56
382.25	419.44
382.63	416.73
383.01	408.36
383.39	426.9
383.77	418.76
384.15	428.93
384.53	417.63
384.91	423.28
385.29	437.06
385.67	431.19
386.049	433.45
386.429	437.97
386.809	440.23
387.189	449.95
387.568	449.04
387.948	450.62
388.328	446.78
388.707	458.08
389.087	439.1
389.466	487.23
389.846	456.27
390.225	473.9
390.605	475.26
390.984	471.64
391.363	487.23
391.743	489.94
392.122	481.36
392.501	483.17
392.881	501.24
393.26	507.35
393.639	480.68
394.018	477.52
394.397	514.8
394.776	509.61
395.155	501.47
395.534	513.9
395.913	528.81
396.292	532.66
396.671	518.64
397.05	514.12
397.429	522.94
397.808	536.5
398.186	544.86
398.565	554.35
398.944	557.29
399.323	540.79
399.701	552.32
400.08	554.58
400.458	560.9
400.837	573.78
401.215	587.34
401.594	586.67
401.972	566.78
402.351	576.72
402.729	553.22
403.107	575.59
403.486	595.03
403.864	597.74
404.242	592.54
404.62	606.33
404.999	607.46
405.377	609.72
405.755	621.47
406.133	627.79
406.511	620.34
406.889	636.83
407.267	647
407.645	630.73
408.023	654.46
408.401	640.22
408.779	682.93
409.156	687
409.534	649.94
409.912	707.57
410.29	686.1
410.667	700.11
411.045	704.4
411.422	696.94
411.8	714.57
412.178	715.02
412.555	730.39
412.933	750.5
413.31	752.99
413.687	752.31
414.065	763.84
414.442	755.02
414.819	776.04
415.197	780.33
415.574	781.46
415.951	770.84
416.328	789.37
416.705	800.67
417.082	822.59
417.46	816.94
417.837	786.89
418.214	820.78
418.591	822.82
418.967	828.69
419.344	877.51
419.721	866.21
420.098	861.23
420.475	872.76
420.852	867.56
421.228	883.15
421.605	889.26
421.982	911.63
422.358	896.26
422.735	900.78
423.111	924.74
423.488	933.77
423.864	920.67
424.241	941.91
424.617	970.16
424.994	964.51
425.37	942.36
425.746	968.8
426.123	985.75
426.499	991.85
426.875	999.99
427.251	1013.77
427.627	1034.56
428.003	1026.65
428.379	1051.51
428.756	1039.53
429.132	1061.46
429.507	1077.05
429.883	1114.56
430.259	1116.82
430.635	1115.69
431.011	1099.65
431.387	1145.52
431.763	1144.16
432.138	1157.27
432.514	1198.85
432.89	1203.6
433.265	1193.88
433.641	1212.86
434.016	1218.29
434.392	1248.57
434.767	1272.3
435.143	1256.25
435.518	1243.15
435.894	1296.7
436.269	1330.83
436.644	1322.47
437.02	1330.37
437.395	1340.32
437.77	1354.55
438.145	1366.98
438.52	1369.47
438.895	1397.04
439.271	1382.8
439.646	1395.23
440.021	1437.49
440.395	1389.36
440.77	1407.21
441.145	1424.61
441.52	1462.8
441.895	1447.43
442.27	1450.82
442.645	1464.16
443.019	1490.6
443.394	1509.8
443.769	1550.03
444.143	1491.27
444.518	1517.94
444.892	1513.65
445.267	1544.38
445.641	1512.97
446.016	1552.29
446.39	1562.68
446.764	1561.1
447.139	1586.64
447.513	1592.97
447.887	1603.81
448.262	1587.77
448.636	1614.89
449.01	1665.51
449.384	1632.06
449.758	1660.99
450.132	1707.31
450.506	1687.88
450.88	1695.11
451.254	1681.78
451.628	1722.45
452.002	1739.86
452.376	1760.42
452.75	1761.55
453.123	1787.09
453.497	1809.23
453.871	1812.62
454.244	1849.91
454.618	1867.08
454.992	1897.37
455.365	1907.53
455.739	1945.05
456.112	1970.58
456.486	1966.52
456.859	1973.75
457.232	2047.87
457.606	2008.32
457.979	2077.47
458.352	2091.26
458.725	2111.6
459.099	2140.07
459.472	2180.75
459.845	2212.39
460.218	2201.76
460.591	2247.41
460.964	2245.83
461.337	2299.16
461.71	2315.66
462.083	2398.82
462.456	2385.71
462.829	2369.44
463.201	2406.28
463.574	2445.6
463.947	2470.91
464.32	2514.52
464.692	2534.18
465.065	2550.91
465.438	2566.95
465.81	2596.56
466.183	2612.37
466.555	2632.94
466.928	2679.27
467.3	2666.61
467.672	2752.26
468.045	2765.37
468.417	2780.05
468.789	2849.2
469.161	2829.09
469.534	2914.74
469.906	2946.15
470.278	2964.91
470.65	2984.34
471.022	3070.89
471.394	3089.65
471.766	3106.83
472.138	3198.12
472.51	3183.21
472.882	3248.52
473.253	3303.2
473.625	3311.79
473.997	3406.7
474.369	3442.86
474.74	3493.93
475.112	3480.37
475.484	3586.13
475.855	3635.85
476.227	3661.84
476.598	3774.6
476.97	3812.34
477.341	3861.38
477.713	3993.36
478.084	3953.36
478.455	4042.39
478.827	4121.26
479.198	4249.17
479.569	4224.76
479.94	4324.65
480.311	4408.94
480.682	4496.39
481.053	4598.31
481.424	4661.13
481.795	4709.04
482.166	4773.9
482.537	4848.93
482.908	4949.71
483.279	5037.4
483.65	5135.92
484.021	5219.09
484.391	5324.17
484.762	5416.59
485.133	5405.07
485.503	5481.9
485.874	5659.3
486.244	5657.04
486.615	5789.24
486.985	5848.22
487.356	5976.35
487.726	6024.26
488.097	6155.56
488.467	6163.47
488.837	6401.43
489.207	6390.81
489.578	6557.36
489.948	6642.55
490.318	6673.28
490.688	6786.73
491.058	6903.34
491.428	6923.9
491.798	7039.6
492.168	7200.95
492.538	7240.5
492.908	7364.11
493.278	7464.22
493.648	7534.96
494.017	7620.83
494.387	7698.34
494.757	7774.05
495.126	7884.78
495.496	7933.82
495.866	8109.41
496.235	8174.04
496.605	8207.48
496.974	8247.93
497.344	8413.8
497.713	8454.93
498.082	8513.69
498.452	8572.67
498.821	8720.69
499.19	8744.42
499.559	8774.92
499.928	8892.89
500.298	8954.35
500.667	9069.61
501.036	9119.1
501.405	9249.04
501.774	9244.52
502.143	9407
502.512	9409.26
502.88	9560.67
503.249	9564.73
503.618	9711.62
503.987	9681.34
504.356	9834.11
504.724	9895.35
505.093	9874.56
505.462	10014.67
505.83	10027.77
506.199	10150.93
506.567	10337.37
506.936	10276.58
507.304	10444.49
507.672	10425.5
508.041	10513.41
508.409	10707.98
508.777	10822.1
509.145	10872.04
509.514	10919.73
509.882	11031.81
510.25	11052.15
510.618	11121.98
510.986	11145.48
511.354	11385.7
511.722	11460.73
512.09	11563.78
512.458	11488.75
512.826	11619.6
513.193	11768.74
513.561	11837.89
513.929	11860.72
514.297	12061.17
514.664	12123.76
515.032	12235.17
515.4	12303.87
515.767	12380.93
516.135	12517.43
516.502	12468.61
516.869	12720.13
517.237	12732.33
517.604	12719.23
517.972	12922.39
518.339	13097.07
518.706	13070.4
519.073	13125.54
519.44	13231.53
519.808	13401.24
520.175	13474.01
520.542	13674
520.909	13728.47
521.276	13822.02
521.643	13953.09
522.009	14008.23
522.376	14149.02
522.743	14283.48
523.11	14457.49
523.477	14638.95
523.843	14699.97
524.21	14795.56
524.577	14898.61
524.943	15007.53
525.31	15157.58
525.676	15331.14
526.043	15436.9
526.409	15476.9
526.776	15652.26
527.142	15840.5
527.508	15912.82
527.874	16087.95
528.241	16125.47
528.607	16136.76
528.973	16334.27
529.339	16438.23
529.705	16577.66
530.071	16804.77
530.437	16865.56
530.803	16931.32
531.169	17027.14
531.535	17118.89
531.901	17153.91
532.267	17310.07
532.632	17493.34
532.998	17441.82
533.364	17652.21
533.73	17697.4
534.095	17877.28
534.461	17776.27
534.826	17933.1
535.192	17931.52
535.557	18128.8
535.923	18187.78
536.288	18180.33
536.653	18380.55
537.019	18442.24
537.384	18379.87
537.749	18606.53
538.114	18606.76
538.479	18692.4
538.845	18713.65
539.21	18691.73
539.575	18696.47
539.94	18914.77
540.305	18999.06
540.67	18975.79
541.034	19023.92
541.399	19107.53
541.764	19201.77
542.129	19282.67
542.494	19337.81
542.858	19435.44
543.223	19389.56
543.587	19466.85
543.952	19484.7
544.316	19511.37
544.681	19624.58
545.045	19856.89
545.41	19854.86
545.774	19883.56
546.138	19797.69
546.503	19983.22
546.867	20038.58
547.231	20114.06
547.595	20207.62
547.959	20201.74
548.324	20224.34
548.688	20367.16
549.052	20356.09
549.416	20435.86
549.779	20478.8
550.143	20470.89
550.507	20657.1
550.871	20704.78
551.235	20893.48
551.599	21047.6
551.962	20963.3
552.326	21090.98
552.689	21206.01
553.053	21109.52
553.417	21187.48
553.78	21403.52
554.143	21364.2
554.507	21511.54
554.87	21431.09
555.234	21835.15
555.597	21598.09
555.96	21659.33
556.323	21866.78
556.686	21866.33
557.05	22015.71
557.413	22120.79
557.776	22114.46
558.139	22330.5
558.502	22417.5
558.865	22449.82
559.228	22684.84
559.59	22725.97
559.953	22826.31
560.316	23068.56
560.679	22985.17
561.041	23115.79
561.404	23175.9
561.767	23383.13
562.129	23358.5
562.492	23563.91
562.854	23615.89
563.217	23764.59
563.579	23871.93
563.941	23995.09
564.304	24167.74
564.666	24238.92
565.028	24309.43
565.39	24319.15
565.753	24626.94
566.115	24548.52
566.477	24900.15
566.839	24925.23
567.201	25159.8
567.563	25127.04
567.925	25407.48
568.287	25337.88
568.648	25488.61
569.01	25629.62
569.372	25748.49
569.734	25780.13
570.095	25923.63
570.457	26233
570.819	26104.86
571.18	26144.86
571.542	26397.51
571.903	26442.03
572.265	26545.08
572.626	26728.12
572.987	26782.13
573.349	26955.46
573.71	27079.53
574.071	27171.96
574.432	27199.3
574.794	27486.07
575.155	27540.53
575.516	27421.89
575.877	27647.42
576.238	27660.08
576.599	27674.09
576.96	27981.2
577.32	27930.13
577.681	28005.38
578.042	28174.19
578.403	27998.6
578.763	28180.97
579.124	28227.97
579.485	28419.83
579.845	28367.86
580.206	28328.31
580.566	28442.2
580.927	28370.34
581.287	28488.08
581.648	28348.65
582.008	28581.86
582.368	28483.33
582.728	28641.97
583.089	28578.25
583.449	28648.75
583.809	28552.26
584.169	28743.21
584.529	28688.3
584.889	28798.35
585.249	28615.31
585.609	28616.89
585.969	28813.04
586.329	28634.29
586.688	28843.1
587.048	28709.54
587.408	28726.26
587.768	28627.96
588.127	28754.74
588.487	28651.46
588.846	28798.35
589.206	28548.87
589.565	28429.32
589.925	28702.76
590.284	28651.01
590.643	28698.69
591.003	28789.54
591.362	28776.88
591.721	28802.42
592.08	28677.9
592.44	28901.85
592.799	28726.49
593.158	28809.88
593.517	28691.92
593.876	28806.94
594.235	28748.41
594.593	28730.56
594.952	28671.58
595.311	28619.37
595.67	28651.69
596.029	28918.8
596.387	28860.27
596.746	28998.8
597.104	28781.18
597.463	28757.22
597.822	28775.75
598.18	28905.24
598.538	28893.94
598.897	29090.55
599.255	28772.14
599.613	29103.43
599.972	28995.64
600.33	28893.72
600.688	28931.46
601.046	28981.17
601.404	29073.6
601.762	29044.9
602.12	29111.34
602.478	29091.68
602.836	29201.96
603.194	28848.97
603.552	29143.65
603.91	29016.88
604.268	29181.39
604.625	29052.58
604.983	29260.26
605.341	29138.01
605.698	29336.19
606.056	29524.66
606.413	29368.28
606.771	29378.22
607.128	29422.97
607.485	29314.95
607.843	29426.81
608.2	29423.65
608.557	29625
608.914	29415.06
609.272	29565.56
609.629	29798.78
609.986	29745.45
610.343	29689.85
610.7	29853.24
611.057	29902.5
611.414	29741.38
611.771	29847.36
612.127	29964.88
612.484	29897.53
612.841	30007.36
613.198	29927.14
613.554	29882.17
613.911	30149.5
614.267	30173.68
614.624	30082.61
614.98	30240.8
615.337	30312.66
615.693	30349.95
616.05	30269.95
616.406	30427.46
616.762	30431.98
617.118	30368.71
617.475	30431.76
617.831	30476.73
618.187	30444.64
618.543	30592.66
618.899	30697.51
619.255	30663.84
619.611	30618.64
619.967	30825.19
620.323	30862.48
620.678	30613.22
621.034	30696.61
621.39	30757.4
621.746	30755.36
622.101	31121.91
622.457	30747.68
622.812	30974.34
623.168	30953.32
623.523	31023.83
623.879	31101.12
624.234	30867.68
624.589	30992.65
624.945	31010.27
625.3	30983.15
625.655	31038.52
626.01	30860.9
626.365	31028.12
626.72	30957.84
627.075	30958.52
627.43	30944.29
627.785	30970.5
628.14	30832.2
628.495	30951.74
628.85	31056.82
629.205	30824.51
629.559	30970.05
629.914	31014.11
630.269	30801.46
630.623	30800.56
630.978	30647.12
631.332	30872.65
631.687	30797.85
632.041	30898.64
632.396	30772.31
632.75	30673.78
633.104	30801.46
633.459	30528.93
633.813	30678.98
634.167	30607.57
634.521	30594.46
634.875	30648.02
635.229	30655.03
635.583	30450.06
635.937	30359.89
636.291	30278.99
636.645	30302.27
636.999	30159.9
637.352	30260.91
637.706	30150.63
638.06	30202.38
638.413	30227.24
638.767	29940.24
639.121	30103.63
639.474	29974.59
639.828	29892.11
640.181	29947.93
640.534	29864.54
640.888	29835.39
641.241	29795.39
641.594	29724.88
641.947	29797.87
642.301	29604.89
642.654	29717.65
643.007	29722.4
643.36	29696.41
643.713	29531.44
644.066	29822.28
644.419	29412.35
644.771	29091.23
645.124	28929.65
645.477	28990.44
645.83	28905.24
646.182	28880.61
646.535	28855.75
646.888	28985.47
647.24	28839.71
647.593	29022.53
647.945	28788.86
648.298	28663.22
648.65	28439.04
649.002	28313.39
649.355	28080.86
649.707	27931.26
650.059	27971.71
650.411	28423.45
650.763	28709.09
651.115	29133.71
651.467	29097.33
651.819	29034.96
652.171	28961.96
652.523	28749.77
652.875	28945.47
653.227	28639.26
653.578	29017.56
653.93	29008.97
654.282	28742.99
654.633	28829.54
654.985	28876.54
655.337	28871.35
655.688	28788.64
656.039	28887.39
656.391	28609.21
656.742	28693.72
657.094	28615.31
657.445	28688.07
657.796	28696.89
658.147	28645.81
658.498	28604.23
658.849	28825.7
659.2	28657.11
659.551	28531.92
659.902	28798.58
660.253	28713.61
660.604	28690.56
660.955	28591.13
661.306	28719.71
661.656	28507.74
662.007	28458.93
662.358	28442.88
662.708	28529.21
663.059	28583.44
663.409	28483.78
663.76	28625.02
664.11	28601.97
664.461	28715.87
664.811	28803.1
665.161	28697.56
665.511	28752.93
665.862	28760.84
666.212	28740.05
666.562	28738.47
666.912	28564.91
667.262	28559.04
667.612	28616.44
667.962	28578.47
668.312	28490.34
668.662	28723.55
669.011	28712.03
669.361	28694.4
669.711	28711.12
670.06	28574.63
670.41	28514.97
670.76	28519.94
671.109	28828.18
671.459	28688.3
671.808	28578.47
672.157	28545.7
672.507	28564.46
672.856	28443.56
673.205	28340.29
673.554	28552.03
673.904	28347.52
674.253	28654.4
674.602	28485.59
674.951	28206.73
675.3	28033.85
675.649	28453.28
675.998	28324.47
676.346	28431.58
676.695	28419.15
677.044	28223.9
677.393	28286.28
677.741	28374.18
678.09	28267.52
678.438	28212.38
678.787	28182.1
679.135	28305.26
679.484	28057.58
679.832	28113.85
680.181	28100.74
680.529	28156.11
680.877	28010.58
681.225	27917.47
681.573	28249.21
681.922	27965.61
682.27	27890.13
682.618	27905.27
682.966	27869.79
683.314	27714.09
683.661	27672.96
684.009	27633.86
684.357	27548.67
684.705	27521.1
685.053	27580.76
685.4	27377.83
685.748	27385.96
686.095	27416.69
686.443	27254.21
686.79	27251.27
687.138	27256.25
687.485	27273.65
687.832	27159.98
688.18	27080.66
688.527	26806.09
688.874	26930.83
689.221	26908.01
689.568	26846.77
689.915	26706.66
690.262	26716.83
690.609	26684.28
690.956	26543.95
691.303	26508.47
691.65	26396.83
691.997	26230.96
692.344	26138.31
692.69	26161.13
693.037	26054.24
693.383	25878.88
693.73	25969.73
694.077	25784.65
694.423	25889.28
694.769	25627.14
695.116	25701.26
695.462	25516.41
695.808	25490.87
696.155	25509.4
696.501	25255.62
696.847	25270.08
697.193	25029.64
697.539	25255.17
697.885	24994.39
698.231	24996.87
698.577	24888.63
698.923	24800.49
699.269	24561.4
699.614	24639.37
699.96	24526.15
700.306	24479.82
700.651	24316.89
700.997	24280.73
701.342	24267.85
701.688	24253.39
702.033	24109.44
702.379	24119.83
702.724	24034.64
703.069	23991.93
703.415	23820.4
703.76	23711.93
704.105	23812.5
704.45	23744.47
704.795	23662.22
705.14	23510.13
705.485	23608.66
705.83	23305.62
706.175	23428.78
706.52	23285.05
706.865	23274.88
707.209	23222.91
707.554	23105.17
707.899	23192.17
708.243	23004.16
708.588	22909.02
708.932	22802.8
709.277	22878.51
709.621	22749.02
709.966	22568.91
710.31	22594.45
710.654	22558.74
710.998	22593.32
711.342	22504.51
711.687	22515.81
712.031	22431.74
712.375	22410.95
712.719	22288.47
713.063	22211.41
713.407	22383.38
713.75	22257.28
714.094	22194.01
714.438	22037.17
714.782	22030.17
715.125	21956.27
715.469	22098.19
715.812	21982.04
716.156	21839.67
716.499	22022.49
716.843	21921.02
717.186	21781.81
717.53	21909.04
717.873	21910.4
718.216	21810.74
718.559	21780.46
718.902	21504.76
719.246	21657.07
719.589	21658.2
719.932	21424.31
720.275	21586.11
720.617	21571.88
720.96	21427.47
721.303	21520.13
721.646	21493.23
721.989	21402.16
722.331	21506.79
722.674	21297.31
723.016	21366.91
723.359	21340.02
723.701	21376.4
724.044	21310.19
724.386	21170.76
724.729	21352
725.071	21129.63
725.413	21178.21
725.755	21155.84
726.097	21062.51
726.439	21025.9
726.782	21036.07
727.124	21100.02
727.465	21164.88
727.807	21003.98
728.149	21193.36
728.491	20999.01
728.833	21080.36
729.175	21064.09
729.516	21009.86
729.858	20915.17
730.199	21018.67
730.541	20880.14
730.882	20865.23
731.224	20968.73
731.565	20824.33
731.906	20888.05
732.248	20985.45
732.589	20847.38
732.93	20815.29
733.271	20767.6
733.612	20738
733.953	20819.13
734.294	20719.7
734.635	20708.85
734.976	20833.82
735.317	20750.43
735.658	20698.23
735.999	20590.43
736.339	20703.42
736.68	20679.47
737.021	20729.64
737.361	20595.63
737.702	20794.04
738.042	20646.48
738.383	20826.59
738.723	20762.86
739.063	20699.13
739.404	20814.83
739.744	20697.55
740.084	20623.43
740.424	20791.56
740.764	20618
741.104	20780.71
741.444	20673.82
741.784	20624.33
742.124	20737.55
742.464	20729.41
742.804	20698.45
743.143	20722.63
743.483	20723.99
743.823	20656.87
744.162	20681.5
744.502	20727.38
744.841	20727.15
745.181	20709.07
745.52	20789.3
745.86	20851.22
746.199	20777.09
746.538	20959.01
746.877	21003.08
747.216	20913.81
747.556	20893.48
747.895	21049.86
748.234	20989.07
748.573	20979.12
748.911	20874.04
749.25	20991.33
749.589	20980.25
749.928	21102.96
750.267	21057.77
750.605	21076.3
750.944	21157.65
751.283	21095.28
751.621	21177.08
751.96	21125.33
752.298	21084.66
752.636	21215.95
752.975	21154.94
753.313	21116.75
753.651	21244.2
753.989	21269.06
754.327	21286.46
754.666	21151.1
755.004	21293.24
755.342	21343.18
755.679	21268.61
756.017	21278.1
756.355	21361.49
756.693	21314.48
757.031	21411.43
757.368	21426.34
757.706	21411.65
758.044	21342.28
758.381	21423.86
758.719	21371.43
759.056	21402.16
759.394	21367.59
759.731	21263.64
760.068	21325.78
760.405	21364.42
760.743	21301.37
761.08	21279
761.417	21194.49
761.754	21293.92
762.091	21315.84
762.428	21280.81
762.765	21186.35
763.102	21277.87
763.438	21242.39
763.775	21160.59
764.112	21161.04
764.449	21137.31
764.785	21031.78
765.122	20912.23
765.458	20961.04
765.795	20969.86
766.131	21077.2
766.467	21044.43
766.804	20763.76
767.14	20700.49
767.476	20730.09
767.812	20659.58
768.148	20680.15
768.485	20643.54
768.821	20574.61
769.157	20503.43
769.492	20443.77
769.828	20387.05
770.164	20327.39
770.5	20317.45
770.836	20319.25
771.171	20184.57
771.507	20215.98
771.842	20002.65
772.178	19998.81
772.513	20008.98
772.849	19942.77
773.184	19836.55
773.519	19846.95
773.855	19704.81
774.19	19785.03
774.525	19552.95
774.86	19699.84
775.195	19615.77
775.53	19564.92
775.865	19311.6
776.2	19208.32
776.535	19201.54
776.87	19226.4
777.205	18990.02
777.539	19087.42
777.874	19002.9
778.209	18915.9
778.543	18905.96
778.878	18851.5
779.212	18804.49
779.547	18627.55
779.881	18527.21
780.215	18482.69
780.55	18484.27
780.884	18527.44
781.218	18375.58
781.552	18502.35
781.886	18340.77
782.22	18239.31
782.554	18113.89
782.888	17991.86
783.222	17955.47
783.556	17915.02
783.889	17856.49
784.223	17819.66
784.557	17714.58
784.89	17745.99
785.224	17657.4
785.557	17527.91
785.891	17344.19
786.224	17373.34
786.558	17405.21
786.891	17325.89
787.224	17223.06
787.557	17191.2
787.891	17151.43
788.224	17064.88
788.557	17066.46
788.89	17126.12
789.223	16946.24
789.556	16922.51
789.888	16893.13
790.221	16830.08
790.554	16706.24
790.887	16651.55
791.219	16597.54
791.552	16616.53
791.884	16435.29
792.217	16416.31
792.549	16332.92
792.882	16269.64
793.214	16275.97
793.546	16176.76
793.879	16102.19
794.211	16044.34
794.543	16042.53
794.875	15986.03
795.207	15965.02
795.539	15901.29
795.871	15929.31
796.203	15755.76
796.535	15677.79
796.867	15642.09
797.198	15737.91
797.53	15566.84
797.862	15523.22
798.193	15443.22
798.525	15410.68
798.856	15524.58
799.188	15283.23
799.519	15203
799.85	15177.92
800.182	15256.56
800.513	15191.93
800.844	15074.42
801.175	15110.13
801.506	15072.61
801.837	15038.49
802.168	14983.8
802.499	15012.5
802.83	14796.91
803.161	14793.3
803.491	14799.85
803.822	14786.07
804.153	14677.59
804.483	14679.4
804.814	14566.86
805.145	14574.32
805.475	14495.68
805.805	14612.51
806.136	14564.38
806.466	14507.43
806.796	14367.55
807.126	14271.96
807.457	14267.89
807.787	14359.86
808.117	14227.21
808.447	14187.89
808.777	14250.26
809.107	14000.1
809.436	14031.74
809.766	14027.44
810.096	13991.06
810.426	13987.44
810.755	14030.38
811.085	13926.2
811.414	13930.27
811.744	13812.53
812.073	13921.68
812.403	13796.26
812.732	13713.55
813.061	13742.7
813.39	13653.21
813.719	13667.23
814.049	13644.18
814.378	13634.23
814.707	13563.27
815.036	13563.27
815.365	13470.62
815.693	13416.84
816.022	13524.18
816.351	13413.45
816.68	13359.66
817.008	13401.92
817.337	13272.21
817.665	13233.34
817.994	13167.58
818.322	13347.01
818.651	13230.4
818.979	13133.91
819.307	13215.26
819.636	13294.13
819.964	13111.76
820.292	13195.37
820.62	13065.89
820.948	13177.97
821.276	13096.84
821.604	13147.47
821.932	13146.11
822.259	13154.7
822.587	13147.92
822.915	13099.56
823.243	13099.33
823.57	13084.87
823.898	13066.79
824.225	13049.16
824.553	13035.6
824.88	13191.53
825.207	13094.36
825.535	13081.7
825.862	13115.6
826.189	13116.05
826.516	13172.55
826.843	13179.1
827.17	13123.96
827.497	13178.65
827.824	13137.97
828.151	13169.39
828.478	13110.86
828.805	13166.22
829.131	13130.52
829.458	13083.29
829.785	12965.77
830.111	13016.85
830.438	13163.51
830.764	13074.92
831.09	13187.01
831.417	13076.51
831.743	13095.49
832.069	13039.9
832.395	13020.01
832.722	13144.3
833.048	13001.03
833.374	13020.01
833.7	12935.95
834.026	12999.9
834.351	12975.04
834.677	13040.58
835.003	12981.59
835.329	13029.28
835.654	13045.32
835.98	12962.84
836.306	13025.89
836.631	12927.81
836.956	12999.45
837.282	12991.31
837.607	12914.48
837.932	12943.85
838.258	12922.16
838.583	12923.06
838.908	12829.51
839.233	12900.47
839.558	12790.86
839.883	12739.79
840.208	12669.74
840.533	12731.66
840.858	12776.85
841.182	12688.49
841.507	12687.59
841.832	12569.18
842.156	12579.12
842.481	12660.7
842.805	12626.12
843.13	12556.07
843.454	12538.44
843.778	12449.18
844.103	12490.76
844.427	12415.51
844.751	12444.43
845.075	12387.26
845.399	12400.82
845.723	12336.19
846.047	12345.68
846.371	12274.72
846.695	12199.02
847.019	12155.63
847.343	12123.54
847.666	12069.98
847.99	12003.54
848.313	11908.4
848.637	11900.72
848.96	11950.43
849.284	11880.61
849.607	11777.78
849.931	11829.08
850.254	11713.83
850.577	11552.25
850.9	11583.44
851.223	11560.39
851.546	11513.16
851.869	11466.83
852.192	11537.11
852.515	11473.16
852.838	11347.51
853.161	11417.79
853.483	11265.93
853.806	11288.3
854.129	11206.05
854.451	11190.68
854.774	11134.64
855.096	11126.5
855.419	11101.42
855.741	11048.76
856.063	10927.64
856.385	10914.08
856.708	10907.98
857.03	10812.84
857.352	10890.8
857.674	10830.69
857.996	10768.54
858.318	10700.3
858.64	10708.89
858.961	10705.95
859.283	10687.19
859.605	10591.83
859.926	10654.88
860.248	10620.98
860.57	10555.22
860.891	10534.2
861.212	10500.53
861.534	10464.37
861.855	10342.57
862.176	10418.5
862.498	10395.22
862.819	10432.06
863.14	10395
863.461	10332.85
863.782	10478.38
864.103	10244.04
864.424	10335.11
864.745	10284.26
865.065	10215.11
865.386	10175.57
865.707	10246.98
866.027	10276.81
866.348	10180.76
866.668	10238.61
866.989	10175.79
867.309	10086.53
867.63	10216.02
867.95	10142.35
868.27	10133.08
868.59	10166.75
868.91	10109.8
869.23	10020.09
869.55	10040.65
869.87	10028
870.19	10042.91
870.51	10003.59
870.83	9956.81
871.15	9949.36
871.469	9872.07
871.789	9951.39
872.109	9935.8
872.428	9896.03
872.748	9991.16
873.067	9893.09
873.386	9875.46
873.706	9947.78
874.025	9740.32
874.344	9774.22
874.663	9836.82
874.982	9702.58
875.301	9773.99
875.62	9719.76
875.939	9760.89
876.258	9770.83
876.577	9675.92
876.896	9681.79
877.214	9701.45
877.533	9601.34
877.852	9629.59
878.17	9624.39
878.489	9674.11
878.807	9591.4
879.125	9543.94
879.444	9571.97
879.762	9557.05
880.08	9552.31
880.398	9530.61
880.716	9513.66
881.034	9428.69
881.352	9506.43
881.67	9508.92
881.988	9439.31
882.306	9449.26
882.624	9397.96
882.941	9350.05
883.259	9356.38
883.577	9339.66
883.894	9382.59
884.212	9308.24
884.529	9322.48
884.846	9274.35
885.164	9207.91
885.481	9187.8
885.798	9204.29
886.115	9162.49
886.432	9197.74
886.75	9124.07
887.067	9078.65
887.383	9165.42
887.7	9126.78
888.017	9045.2
888.334	9095.37
888.651	9028.93
888.967	8977.41
889.284	8931.76
889.6	8942.6
889.917	8902.38
890.233	8872.1
890.55	8856.96
890.866	8826.67
891.182	8840.91
891.498	8806.34
891.815	8750.07
892.131	8727.69
892.447	8715.49
892.763	8704.64
893.079	8651.09
893.395	8572.67
893.71	8632.56
894.026	8578.32
894.342	8562.5
894.657	8588.04
894.973	8524.31
895.289	8484.54
895.604	8456.74
895.92	8428.49
896.235	8452
896.55	8379.68
896.865	8380.13
897.181	8305.56
897.496	8376.74
897.811	8259.68
898.126	8265.33
898.441	8231.89
898.756	8247.93
899.071	8095.62
899.386	8163.19
899.7	8078.45
900.015	8071.67
900.33	8022.18
900.644	7948.28
900.959	8070.99
901.273	8001.16
901.588	7912.12
901.902	7886.36
902.216	7951.44
902.531	7898.11
902.845	7866.25
903.159	7836.42
903.473	7805.01
903.787	7750.54
904.101	7690.89
904.415	7743.99
904.729	7701.05
905.042	7661.06
905.356	7654.5
905.67	7630.77
905.984	7649.98
906.297	7531.79
906.611	7530.89
906.924	7436.88
907.237	7459.48
907.551	7499.25
907.864	7354.85
908.177	7355.75
908.491	7347.84
908.804	7288.86
909.117	7273.27
909.43	7254.74
909.743	7198.02
910.056	7238.69
910.368	7191.92
910.681	7176.1
910.994	7111.92
911.307	7134.06
911.619	7051.58
911.932	7064.46
912.244	7027.4
912.557	7029.43
912.869	6990.56
913.181	6959.38
913.494	6853.39
913.806	6872.6
914.118	6853.85
914.43	6894.07
914.742	6781.76
915.054	6750.12
915.366	6764.36
915.678	6703.79
915.99	6677.8
916.302	6648.65
916.613	6649.1
916.925	6666.05
917.236	6613.4
917.548	6556.68
917.859	6542.21
918.171	6535.21
918.482	6425.16
918.794	6448.88
919.105	6423.57
919.416	6412.27
919.727	6337.93
920.038	6370.02
920.349	6313.97
920.66	6291.15
920.971	6269.23
921.282	6264.48
921.593	6223.35
921.903	6175.22
922.214	6173.64
922.525	6123.24
922.835	6118.5
923.146	6062.91
923.456	6121.21
923.767	6033.08
924.077	6026.75
924.387	6007.54
924.697	5980.65
925.008	5963.02
925.318	5898.39
925.628	5853.87
925.938	5873.53
926.248	5821.78
926.558	5753.99
926.867	5853.42
927.177	5750.37
927.487	5682.58
927.796	5684.16
928.106	5720.54
928.416	5721.22
928.725	5663.82
929.034	5677.38
929.344	5630.15
929.653	5623.37
929.962	5590.15
930.271	5511.28
930.581	5570.72
930.89	5488.01
931.199	5445.29
931.508	5458.18
931.817	5470.83
932.125	5462.02
932.434	5409.14
932.743	5324.85
933.051	5334.11
933.36	5317.61
933.669	5330.04
933.977	5284.62
934.286	5220.44
934.594	5239.65
934.902	5191.97
935.21	5208.01
935.519	5147.22
935.827	5188.13
936.135	5104.06
936.443	5088.24
936.751	5007.11
937.059	5094.34
937.367	5049.37
937.674	5069.94
937.982	5004.85
938.29	4958.75
938.597	4975.93
938.905	4949.71
939.213	4963.05
939.52	4923.95
939.827	4869.72
940.135	4868.59
940.442	4880.34
940.749	4857.29
941.056	4829.49
941.363	4764.41
941.67	4811.87
941.977	4774.58
942.284	4725.31
942.591	4735.26
942.898	4725.99
943.205	4679.21
943.511	4642.15
943.818	4621.36
944.125	4556.96
944.431	4580.01
944.738	4603.96
945.044	4542.27
945.35	4580.01
945.657	4507.24
945.963	4489.84
946.269	4518.09
946.575	4468.82
946.881	4448.48
947.187	4423.85
947.493	4405.32
947.799	4376.85
948.105	4341.59
948.41	4361.93
948.716	4336.17
949.022	4400.8
949.327	4318.54
949.633	4212.78
949.938	4292.56
950.244	4223.86
950.549	4218.66
950.854	4206.01
951.16	4216.4
951.465	4163.07
951.77	4166.68
952.075	4158.32
952.38	4105.44
952.685	4119
952.99	4100.02
953.294	4054.82
953.599	4018.89
953.904	4028.83
954.209	4003.98
954.513	3972.79
954.818	3990.64
955.122	3959.01
955.426	3960.36
955.731	3946.8
956.035	3943.19
956.339	3933.7
956.643	3861.16
956.948	3868.39
957.252	3877.2
957.556	3848.95
957.86	3801.04
958.163	3835.62
958.467	3770.08
958.771	3807.37
959.075	3778.45
959.378	3706.58
959.682	3709.07
959.985	3691.44
960.289	3713.81
960.592	3642.86
960.896	3650.09
961.199	3661.16
961.502	3660.93
961.805	3660.48
962.108	3605.34
962.411	3611.9
962.714	3596.98
963.017	3565.34
963.32	3529.41
963.623	3525.8
963.926	3498.45
964.228	3522.41
964.531	3511.11
964.833	3514.72
965.136	3466.59
965.438	3439.25
965.741	3400.6
966.043	3382.52
966.345	3384.78
966.648	3394.28
966.95	3425.69
967.252	3363.99
967.554	3353.15
967.856	3347.27
968.158	3285.58
968.46	3312.7
968.761	3309.31
969.063	3268.18
969.365	3298.91
969.666	3196.77
969.968	3206.26
970.269	3211.68
970.571	3214.17
970.872	3168.29
971.174	3204
971.475	3125.13
971.776	3177.78
972.077	3165.81
972.378	3100.5
972.679	3121.06
972.98	3138.46
973.281	3107.5
973.582	3110.44
973.883	3071.35
974.183	3077.67
974.484	3033.15
974.785	3043.1
975.085	3025.02
975.386	3018.01
975.686	2976.66
975.986	2985.25
976.287	2943.89
976.587	2929.43
976.887	2976.43
977.187	2897.11
977.487	2923.55
977.787	2895.98
978.087	2887.85
978.387	2864.8
978.687	2855.53
978.987	2864.57
979.286	2838.36
979.586	2827.06
979.885	2823.89
980.185	2792.26
980.484	2736.67
980.784	2761.3
981.083	2759.49
981.382	2769.21
981.682	2722.2
981.981	2738.47
982.28	2712.49
982.579	2712.03
982.878	2674.52
983.177	2682.43
983.475	2686.95
983.774	2630
984.073	2634.75
984.372	2611.24
984.67	2643.11
984.969	2602.66
985.267	2603.34
985.566	2635.43
985.864	2599.72
986.162	2579.16
986.461	2543
986.759	2557.91
987.057	2529.89
987.355	2513.39
987.653	2519.27
987.951	2467.97
988.249	2494.41
988.547	2501.19
988.844	2461.87
989.142	2487.63
989.44	2447.41
989.737	2437.92
990.035	2456.45
990.332	2426.62
990.63	2418.93
990.927	2351.59
991.224	2389.78
991.521	2373.06
991.819	2394.98
992.116	2367.18
992.413	2354.75
992.71	2338.94
993.006	2335.77
993.303	2327.18
993.6	2315.21
993.897	2310.91
994.193	2269.78
994.49	2297.13
994.787	2300.74
995.083	2232.95
995.379	2230.92
995.676	2235.21
995.972	2214.42
996.268	2202.22
996.565	2196.34
996.861	2180.97
997.157	2145.27
997.453	2183.23
997.749	2160.86
998.044	2150.47
998.34	2144.82
998.636	2129
998.932	2104.37
999.227	2086.96
999.523	2097.59
999.818	2068.89
1000.114	2084.03
1000.409	2058.04
1000.704	2058.94
1001	2041.32
1001.295	2028.44
1001.59	1992.28
1001.885	1998.15
1002.18	2006.06
1002.475	2002.9
1002.77	2006.29
1003.065	1966.29
1003.359	1979.85
1003.654	1937.36
1003.949	1945.05
1004.243	1960.64
1004.538	1896.46
1004.832	1898.5
1005.127	1925.84
1005.421	1901.21
1005.715	1898.04
1006.009	1864.82
1006.304	1859.85
1006.598	1840.42
1006.892	1824.6
1007.186	1828.44
1007.48	1836.8
1007.773	1796.13
1008.067	1800.64
1008.361	1769.46
1008.655	1809.68
1008.948	1798.38
1009.242	1773.3
1009.535	1735.34
1009.829	1743.92
1010.122	1737.82
1010.415	1729.01
1010.708	1734.66
1011.001	1716.13
1011.295	1672.51
1011.588	1699.18
1011.881	1680.42
1012.173	1647.65
1012.466	1664.38
1012.759	1632.06
1013.052	1642
1013.344	1630.48
1013.637	1624.83
1013.93	1612.85
1014.222	1623.7
1014.514	1574.21
1014.807	1617.82
1015.099	1567.2
1015.391	1567.66
1015.683	1558.39
1015.976	1572.4
1016.268	1547.54
1016.56	1535.34
1016.851	1511.16
1017.143	1533.99
1017.435	1515.23
1017.727	1519.75
1018.018	1479.3
1018.31	1461.44
1018.602	1456.02
1018.893	1469.13
1019.185	1437.94
1019.476	1452.63
1019.767	1426.19
1020.058	1410.37
1020.35	1413.76
1020.641	1421.67
1020.932	1425.74
1021.223	1414.44
1021.514	1361.56
1021.804	1388
1022.095	1355.91
1022.386	1351.39
1022.677	1362.69
1022.967	1329.47
1023.258	1329.7
1023.548	1297.83
1023.839	1307.55
1024.129	1309.13
1024.419	1289.25
1024.709	1298.29
1025	1278.4
1025.29	1293.99
1025.58	1260.77
1025.87	1274.1
1026.16	1227.78
1026.449	1256.7
1026.739	1238.63
1027.029	1245.41
1027.319	1217.84
1027.608	1238.85
1027.898	1208.8
1028.187	1182.36
1028.477	1199.53
1028.766	1176.03
1029.055	1186.2
1029.344	1160.21
1029.634	1147.33
1029.923	1149.81
1030.212	1134.9
1030.501	1116.82
1030.79	1117.95
1031.078	1151.62
1031.367	1112.53
1031.656	1116.37
1031.945	1105.75
1032.233	1081.57
1032.522	1095.58
1032.81	1085.86
1033.099	1090.15
1033.387	1082.25
1033.675	1067.33
1033.963	1059.42
1034.251	1059.2
1034.54	1057.16
1034.828	1067.78
1035.116	1052.64
1035.403	1038.63
1035.691	1038.86
1035.979	1012.87
1036.267	996.6
1036.554	991.4
1036.842	977.16
1037.129	997.95
1037.417	966.54
1037.704	988.91
1037.992	999.76
1038.279	965.41
1038.566	978.97
1038.853	978.97
1039.14	978.97
