Data from 350_FLMS001491_002.txt Node
Date: Thu Apr 19 15:44:22 BST 2018
User: hsy
Spectrometer: FLMS00149
Trigger mode: 0
Integration Time (sec): 1.000000E-2
Scans to average: 10
Electric dark correction enabled: true
Nonlinearity correction enabled: false
Boxcar width: 0
XAxis mode: Wavelengths
Number of Pixels in Spectrum: 2048
>>>>>Begin Spectral Data<<<<<
341.393	-19.56
341.776	-19.56
342.16	-19.56
342.543	-56.85
342.927	-66.11
343.31	-60.46
343.693	-65.89
344.077	-62.27
344.46	-59.33
344.843	-57.07
345.226	-20.92
345.61	-32.67
345.993	-12.56
346.376	-29.5
346.759	16.82
347.142	33.54
347.525	54.56
347.908	37.61
348.291	69.7
348.674	83.71
349.057	104.73
349.44	116.03
349.823	140.89
350.206	172.75
350.588	217.27
350.971	225.86
351.354	227.89
351.737	251.84
352.119	267.21
352.502	266.53
352.884	291.84
353.267	296.36
353.65	311.73
354.032	330.49
354.414	341.56
354.797	359.41
355.179	368.22
355.562	348.11
355.944	340.88
356.326	352.18
356.709	349.92
357.091	366.87
357.473	366.87
357.855	342.46
358.238	370.03
358.62	357.83
359.002	357.6
359.384	354.89
359.766	351.73
360.148	348.79
360.53	374.55
360.912	362.35
361.294	354.67
361.676	361.9
362.057	366.19
362.439	364.16
362.821	367.09
363.203	364.16
363.584	369.58
363.966	379.98
364.348	380.65
364.729	355.57
365.111	358.06
365.493	377.26
365.874	345.17
366.256	336.14
366.637	339.98
367.019	363.03
367.4	366.42
367.781	347.89
368.163	350.15
368.544	349.69
368.925	362.35
369.306	358.28
369.688	347.66
370.069	341.33
370.45	339.75
370.831	360.77
371.212	349.69
371.593	358.28
371.974	346.3
372.355	345.63
372.736	370.48
373.117	359.41
373.498	353.76
373.879	380.88
374.26	357.15
374.641	332.52
375.021	349.69
375.402	382.24
375.783	396.92
376.163	367.77
376.544	398.96
376.925	393.31
377.305	385.17
377.686	386.53
378.066	395.34
378.447	374.1
378.827	386.98
379.208	374.33
379.588	416.13
379.968	387.43
380.349	391.95
380.729	400.09
381.109	403.7
381.489	408.68
381.87	397.38
382.25	401.44
382.63	426.75
383.01	400.54
383.39	426.75
383.77	401.67
384.15	415.68
384.53	414.55
384.91	417.72
385.29	443.93
385.67	432.86
386.049	445.96
386.429	418.84
386.809	448.22
387.189	433.53
387.568	452.74
387.948	449.35
388.328	447.09
388.707	456.58
389.087	446.41
389.466	452.52
389.846	467.88
390.225	462.46
390.605	474.66
390.984	489.58
391.363	477.83
391.743	468.79
392.122	498.39
392.501	488
392.881	491.84
393.26	519.18
393.639	497.94
394.018	475.79
394.397	500.65
394.776	488.9
395.155	499.07
395.534	490.71
395.913	495
396.292	511.95
396.671	515.79
397.05	520.09
397.429	521.89
397.808	513.53
398.186	535.68
398.565	527.77
398.944	523.02
399.323	550.59
399.701	542.91
400.08	542.46
400.458	541.33
400.837	529.12
401.215	566.86
401.594	561.89
401.972	566.86
402.351	561.21
402.729	574.55
403.107	571.38
403.486	563.93
403.864	584.94
404.242	584.26
404.62	577.94
404.999	594.21
405.377	590.14
405.755	593.08
406.133	602.12
406.511	600.08
406.889	623.36
407.267	623.36
407.645	612.06
408.023	643.02
408.401	648.22
408.779	641.21
409.156	665.62
409.534	654.54
409.912	663.36
410.29	688.22
410.667	673.75
411.045	689.8
411.422	701.1
411.8	700.19
412.178	701.1
412.555	730.7
412.933	715.56
413.31	749.23
413.687	752.62
414.065	745.16
414.442	746.97
414.819	758.05
415.197	779.74
415.574	783.81
415.951	773.19
416.328	795.78
416.705	774.77
417.082	797.59
417.46	788.33
417.837	795.11
418.214	803.69
418.591	814.54
418.967	832.39
419.344	819.29
419.721	829.68
420.098	835.56
420.475	845.73
420.852	856.8
421.228	846.18
421.605	867.65
421.982	857.7
422.358	869.45
422.735	882.79
423.111	856.12
423.488	897.93
423.864	896.12
424.241	906.06
424.617	893.86
424.994	949.23
425.37	925.72
425.746	940.41
426.123	938.38
426.499	966.63
426.875	951.03
427.251	989.23
427.627	1009.56
428.003	981.09
428.379	1000.3
428.756	1009.11
429.132	1023.8
429.507	1013.18
429.883	1053.4
430.259	1078.04
430.635	1065.16
431.011	1052.95
431.387	1106.28
431.763	1126.85
432.138	1108.09
432.514	1141.09
432.89	1130.46
433.265	1178.15
433.641	1169.11
434.016	1177.92
434.392	1181.08
434.767	1224.25
435.143	1217.02
435.518	1231.93
435.894	1239.39
436.269	1254.53
436.644	1290.23
437.02	1286.39
437.395	1284.81
437.77	1300.63
438.145	1309.89
438.52	1334.3
438.895	1351.02
439.271	1351.93
439.646	1362.1
440.021	1384.24
440.395	1386.73
440.77	1370.01
441.145	1380.4
441.52	1389.89
441.895	1391.7
442.27	1401.64
442.645	1396.45
443.019	1426.05
443.394	1417.24
443.769	1458.82
444.143	1436.67
444.518	1475.31
444.892	1453.17
445.267	1452.72
445.641	1500.17
446.016	1480.29
446.39	1512.83
446.764	1500.85
447.139	1521.64
447.513	1487.97
447.887	1527.97
448.262	1527.52
448.636	1541.3
449.01	1564.13
449.384	1589.44
449.758	1567.06
450.132	1599.15
450.506	1607.74
450.88	1629.66
451.254	1619.04
451.628	1629.21
452.002	1642.54
452.376	1659.04
452.75	1672.6
453.123	1685.25
453.497	1730
453.871	1740.62
454.244	1784.01
454.618	1804.35
454.992	1800.5
455.365	1833.05
455.739	1845.47
456.112	1870.33
456.486	1896.09
456.859	1887.05
457.232	1967.5
457.606	1934.51
457.979	1966.6
458.352	1995.75
458.725	2030.55
459.099	2002.98
459.472	2067.39
459.845	2085.24
460.218	2098.8
460.591	2127.73
460.964	2160.49
461.337	2164.79
461.71	2226.93
462.083	2237.55
462.456	2218.57
462.829	2246.14
463.201	2319.81
463.574	2296.76
463.947	2314.61
464.32	2365.46
464.692	2374.95
465.065	2392.8
465.438	2461.96
465.81	2477.77
466.183	2491.78
466.555	2520.48
466.928	2566.59
467.3	2547.6
467.672	2584.66
468.045	2643.19
468.417	2665.79
468.789	2691.78
469.161	2692.68
469.534	2764.77
469.906	2811.55
470.278	2793.92
470.65	2848.39
471.022	2881.61
471.394	2974.03
471.766	2971.32
472.138	3015.84
472.51	3071.66
472.882	3119.56
473.253	3141.26
473.625	3188.94
473.997	3245.89
474.369	3299.9
474.74	3315.49
475.112	3383.74
475.484	3421.7
475.855	3454.47
476.227	3523.4
476.598	3631.87
476.97	3605.43
477.341	3657.63
477.713	3765.88
478.084	3794.35
478.455	3844.07
478.827	3937.17
479.198	3984.63
479.569	4075.25
479.94	4114.79
480.311	4152.31
480.682	4275.69
481.053	4370.15
481.424	4442.24
481.795	4491.51
482.166	4526.76
482.537	4601.11
482.908	4715.91
483.279	4746.64
483.65	4844.94
484.021	4935.79
484.391	5009.68
484.762	5067.08
485.133	5126.74
485.503	5199.96
485.874	5348.88
486.244	5383.91
486.615	5466.85
486.985	5595.88
487.356	5662.32
487.726	5702.77
488.097	5880.17
488.467	5918.59
488.837	6031.8
489.207	6098.02
489.578	6226.15
489.948	6315.19
490.318	6351.34
490.688	6460.27
491.058	6511.79
491.428	6584.56
491.798	6712.92
492.168	6791.11
492.538	6915.17
492.908	6989.07
493.278	7056.41
493.648	7131.21
494.017	7241.72
494.387	7266.35
494.757	7401.26
495.126	7446
495.496	7604.87
495.866	7651.88
496.235	7744.53
496.605	7824.53
496.974	7860.23
497.344	7950.62
497.713	8015.48
498.082	8053.22
498.452	8161.47
498.821	8245.76
499.19	8279.66
499.559	8445.53
499.928	8481.23
500.298	8582.92
500.667	8601.68
501.036	8709.93
501.405	8756.03
501.774	8797.16
502.143	8917.38
502.512	8955.12
502.88	9068.56
503.249	9118.96
503.618	9203.02
503.987	9345.62
504.356	9354.66
504.724	9433.52
505.093	9462.45
505.462	9550.13
505.83	9565.27
506.199	9669.9
506.567	9867.18
506.936	9876.68
507.304	9959.16
507.672	10024.47
508.041	10033.28
508.409	10174.29
508.777	10284.35
509.145	10341.97
509.514	10396.66
509.882	10482.31
510.25	10599.14
510.618	10669.87
510.986	10657.22
511.354	10838.23
511.722	10949.19
512.09	11086.81
512.458	11056.76
512.826	11119.35
513.193	11252.46
513.561	11383.98
513.929	11404.77
514.297	11522.51
514.664	11678.21
515.032	11701.03
515.4	11782.39
515.767	11927.02
516.135	11953.91
516.502	11892.22
516.869	12185.09
517.237	12184.64
517.604	12185.99
517.972	12465.31
518.339	12459.43
518.706	12567.68
519.073	12577.4
519.44	12708.01
519.808	12883.83
520.175	12920.66
520.542	13043.15
520.909	13126.31
521.276	13283.59
521.643	13429.8
522.009	13484.72
522.376	13593.19
522.743	13751.6
523.11	13879.73
523.477	14037.24
523.843	14097.13
524.21	14304.13
524.577	14321.08
524.943	14470.23
525.31	14493.5
525.676	14778.47
526.043	14839.48
526.409	14954.28
526.776	15123.99
527.142	15173.94
527.508	15271.11
527.874	15337.77
528.241	15521.27
528.607	15556.53
528.973	15780.7
529.339	15849.17
529.705	16096.62
530.071	16180.92
530.437	16090.52
530.803	16312.89
531.169	16429.05
531.535	16539.1
531.901	16531.42
532.267	16631.07
532.632	16842.59
532.998	16864.06
533.364	16942.03
533.73	17017.5
534.095	17290.94
534.461	17169.59
534.826	17217.95
535.192	17277.84
535.557	17539.52
535.923	17543.59
536.288	17612.97
536.653	17773.87
537.019	17746.98
537.384	17814.55
537.749	17891.15
538.114	17937.48
538.479	17955.33
538.845	18181.09
539.21	18166.4
539.575	18198.26
539.94	18174.31
540.305	18344.48
540.67	18361.88
541.034	18422.21
541.399	18486.39
541.764	18597.12
542.129	18616.33
542.494	18659.72
542.858	18729.78
543.223	18768.87
543.587	18923.67
543.952	18866.72
544.316	18953.95
544.681	18981.52
545.045	19117.79
545.41	19261.06
545.774	19270.33
546.138	19258.58
546.503	19329.99
546.867	19331.79
547.231	19419.48
547.595	19515.74
547.959	19638.9
548.324	19544.44
548.688	19767.71
549.052	19635.51
549.416	19685.46
549.779	19775.17
550.143	19835.74
550.507	19928.84
550.871	20007.48
551.235	20066.69
551.599	20300.58
551.962	20237.76
552.326	20336.51
552.689	20487.7
553.053	20263.29
553.417	20508.26
553.78	20730.4
554.143	20620.35
554.507	20759.1
554.87	20805.88
555.234	20937.4
555.597	20964.52
555.96	21012.65
556.323	21120.22
556.686	21193.89
557.05	21366.09
557.413	21463.49
557.776	21513.43
558.139	21675.46
558.502	21758.4
558.865	21709.36
559.228	21891.05
559.59	21974.89
559.953	22016.02
560.316	22284.71
560.679	22228.67
561.041	22426.4
561.404	22543.23
561.767	22710.01
562.129	22655.77
562.492	22891.7
562.854	22978.48
563.217	22975.09
563.579	23129.21
563.941	23247.17
564.304	23226.83
564.666	23549.54
565.028	23540.27
565.39	23731.23
565.753	23853.93
566.115	23957.21
566.477	24000.15
566.839	24125.34
567.201	24340.7
567.563	24433.81
567.925	24529.85
568.287	24603.29
568.648	24613.01
569.01	24758.32
569.372	25013.23
569.734	24962.15
570.095	25159.89
570.457	25286.67
570.819	25323.73
571.18	25499.77
571.542	25710.84
571.903	25673.32
572.265	25664.06
572.626	26028.34
572.987	26030.37
573.349	26139.98
573.71	26226.98
574.071	26331.38
574.432	26522.79
574.794	26639.17
575.155	26702.45
575.516	26647.31
575.877	26727.08
576.238	26711.71
576.599	26929.79
576.96	27006.62
577.32	27123
577.681	27149.89
578.042	27246.16
578.403	27295.65
578.763	27205.26
579.124	27328.65
579.485	27533.61
579.845	27512.82
580.206	27496.55
580.566	27375.88
580.927	27522.54
581.287	27520.73
581.648	27483.44
582.008	27778.8
582.368	27646.83
582.728	27672.59
583.089	27645.02
583.449	27743.32
583.809	27728.41
584.169	27781.74
584.529	27678.92
584.889	27912.36
585.249	27654.51
585.609	27637.79
585.969	27869.2
586.329	27734.06
586.688	27882.08
587.048	27851.8
587.408	27818.35
587.768	27708.97
588.127	27730.67
588.487	27799.14
588.846	27981.51
589.206	27732.93
589.565	27681.63
589.925	27874.17
590.284	27729.54
590.643	27797.56
591.003	27810.89
591.362	27933.15
591.721	27831.46
592.08	27761.85
592.44	27828.29
592.799	27740.84
593.158	27741.52
593.517	27798.24
593.876	27734.74
594.235	27697.45
594.593	27797.56
594.952	27854.51
595.311	27699.94
595.67	27852.47
596.029	27898.57
596.387	27925.92
596.746	27925.69
597.104	27836.2
597.463	27807.73
597.822	27947.61
598.18	27812.93
598.538	27756.88
598.897	27964.11
599.255	27755.53
599.613	28205.91
599.972	27918.69
600.33	28045.46
600.688	28019.02
601.046	27862.42
601.404	28078.23
601.762	27976.54
602.12	28103.54
602.478	28174.95
602.836	28158.45
603.194	28019.93
603.552	27991
603.91	28147.83
604.268	28141.73
604.625	28073.94
604.983	28260.6
605.341	28082.75
605.698	28216.08
606.056	28385.12
606.413	28135.63
606.771	28475.06
607.128	28359.13
607.485	28174.95
607.843	28314.61
608.2	28436.19
608.557	28501.72
608.914	28403.65
609.272	28639.57
609.629	28709.85
609.986	28762.96
610.343	28633.92
610.7	28875.95
611.057	28668.27
611.414	28817.87
611.771	28967.25
612.127	28956.85
612.484	28894.48
612.841	28985.78
613.198	28846.12
613.554	28929.73
613.911	29106
614.267	29171.76
614.624	29005.89
614.98	29137.64
615.337	29334.92
615.693	29208.82
616.05	29204.53
616.406	29383.73
616.762	29479.1
617.118	29278.88
617.475	29337.41
617.831	29615.14
618.187	29520.9
618.543	29557.06
618.899	29664.18
619.255	29652.65
619.611	29597.96
619.967	29697.62
620.323	29798.86
620.678	29630.96
621.034	29778.75
621.39	29723.61
621.746	29719.09
622.101	29991.4
622.457	29732.88
622.812	29853.33
623.168	29957.73
623.523	29847
623.879	29992.08
624.234	29835.7
624.589	30011.97
624.945	29944.85
625.3	29962.93
625.655	29973.55
626.01	30003.6
626.365	29907.11
626.72	29866.66
627.075	29772.65
627.43	29865.75
627.785	29874.57
628.14	29821.46
628.495	29938.75
628.85	29930.84
629.205	29924.06
629.559	29997.95
629.914	29993.21
630.269	29903.27
630.623	29673.89
630.978	29610.85
631.332	29863.95
631.687	29809.03
632.041	29666.66
632.396	29792.31
632.75	29633.9
633.104	29736.49
633.459	29548.25
633.813	29502.15
634.167	29493.33
634.521	29567.91
634.875	29535.59
635.229	29483.84
635.583	29339.21
635.937	29334.47
636.291	29343.73
636.645	29339.21
636.999	29368.37
637.352	29289.72
637.706	29121.14
638.06	29199.33
638.413	29155.04
638.767	29004.99
639.121	29226.9
639.474	29017.64
639.828	28864.2
640.181	29042.73
640.534	28964.54
640.888	28836.18
641.241	28628.95
641.594	28864.65
641.947	28901.49
642.301	28754.37
642.654	28761.83
643.007	28624.43
643.36	28684.99
643.713	28735.16
644.066	28767.7
644.419	28616.3
644.771	28226.7
645.124	27946.71
645.477	27990.1
645.83	27979.02
646.182	28001.17
646.535	27925.24
646.888	27921.62
647.24	27874.62
647.593	28011.79
647.945	28047.95
648.298	27704.91
648.65	27548.75
649.002	27405.25
649.355	27143.34
649.707	27099.73
650.059	26958.71
650.411	27501.97
650.763	27726.83
651.115	28274.38
651.467	28126.36
651.819	28135.86
652.171	28145.8
652.523	27962.75
652.875	28053.82
653.227	27814.28
653.578	28082.07
653.93	27948.52
654.282	27985.58
654.633	27958.69
654.985	27966.82
655.337	27838.69
655.688	27882.08
656.039	28013.6
656.391	27542.2
656.742	27681.63
657.094	27737
657.445	27768.63
657.796	27800.5
658.147	27765.47
658.498	27790.78
658.849	27846.15
659.2	27788.52
659.551	27755.75
659.902	27805.24
660.253	27720.95
660.604	27783.55
660.955	27594.18
661.306	27797.33
661.656	27657.22
662.007	27715.08
662.358	27652.25
662.708	27713.04
663.059	27597.11
663.409	27567.06
663.76	27626.72
664.11	27686.15
664.461	27793.49
664.811	27882.76
665.161	27691.57
665.511	27713.72
665.862	27708.3
666.212	27815.86
666.562	27746.26
666.912	27788.75
667.262	27693.16
667.612	27700.84
667.962	27698.58
668.312	27699.48
668.662	27804.57
669.011	27593.05
669.361	27632.14
669.711	27587.4
670.06	27628.75
670.41	27676.89
670.76	27513.95
671.109	27639.37
671.459	27663.1
671.808	27617
672.157	27809.54
672.507	27486.16
672.856	27512.14
673.205	27504.23
673.554	27546.04
673.904	27411.36
674.253	27642.31
674.602	27439.83
674.951	27227.63
675.3	27124.58
675.649	27410.23
675.998	27498.13
676.346	27404.35
676.695	27495.2
677.044	27359.83
677.393	27317.12
677.741	27531.58
678.09	27376.55
678.438	27254.75
678.787	27301.3
679.135	27404.8
679.484	27221.08
679.832	27196.9
680.181	27070.35
680.529	27196.67
680.877	26999.84
681.225	27056.34
681.573	27217.01
681.922	26996.23
682.27	27103.12
682.618	27078.48
682.966	26892.73
683.314	26936.11
683.661	26919.84
684.009	26813.86
684.357	26762.33
684.705	26773.18
685.053	26724.37
685.4	26592.62
685.748	26589.23
686.095	26559.4
686.443	26245.06
686.79	26290.26
687.138	26373.87
687.485	26393.98
687.832	26291.38
688.18	26304.94
688.527	26044.16
688.874	26157.15
689.221	26050.04
689.568	25839.87
689.915	25775.47
690.262	25756.03
690.609	25685.3
690.956	25652.08
691.303	25783.38
691.65	25459.99
691.997	25492.54
692.344	25278.3
692.69	25297.51
693.037	25284.63
693.383	25102.26
693.73	25168.25
694.077	24993.34
694.423	25100.68
694.769	24890.52
695.116	24967.8
695.462	24719.22
695.808	24687.59
696.155	24725.32
696.501	24427.03
696.847	24629.51
697.193	24314.04
697.539	24322.85
697.885	24269.07
698.231	24141.39
698.577	24143.64
698.923	24047.15
699.269	23910.66
699.614	23894.61
699.96	23763.32
700.306	23856.87
700.651	23668.63
700.997	23602.42
701.342	23507.73
701.688	23482.19
702.033	23298.7
702.379	23348.86
702.724	23258.92
703.069	23341.86
703.415	23070.68
703.76	23098.47
704.105	22998.59
704.45	22967.4
704.795	22934.19
705.14	22801.53
705.485	22716.56
705.83	22600.63
706.175	22707.07
706.52	22597.92
706.865	22576.91
707.209	22343.47
707.554	22416.23
707.899	22257.14
708.243	22271.6
708.588	22251.72
708.932	22107.31
709.277	22163.36
709.621	22066.86
709.966	21885.4
710.31	21888.79
710.654	21725.4
710.998	21885.85
711.342	21927.21
711.687	21847.43
712.031	21705.97
712.375	21616.93
712.719	21543.04
713.063	21514.11
713.407	21571.51
713.75	21462.13
714.094	21530.61
714.438	21338.07
714.782	21309.6
715.125	21306.66
715.469	21380.55
715.812	21202.71
716.156	21176.04
716.499	21326.77
716.843	21210.16
717.186	21043.16
717.53	21115.02
717.873	21192.54
718.216	21119.77
718.559	20982.6
718.902	20897.18
719.246	20867.35
719.589	20934.24
719.932	20810.63
720.275	20795.71
720.617	20826.44
720.96	20768.14
721.303	20762.94
721.646	20804.3
721.989	20633
722.331	20658.31
722.674	20553.46
723.016	20560.01
723.359	20566.11
723.701	20565.43
724.044	20565.89
724.386	20495.15
724.729	20569.95
725.071	20508.71
725.413	20442.95
725.755	20383.52
726.097	20341.26
726.439	20298.1
726.782	20276.85
727.124	20434.82
727.465	20321.6
727.807	20190.98
728.149	20317.53
728.491	20285.67
728.833	20211.32
729.175	20193.01
729.516	20181.72
729.858	20298.1
730.199	20349.39
730.541	20219.91
730.882	20156.41
731.224	20223.97
731.565	20162.73
731.906	20132.9
732.248	20202.05
732.589	20071.66
732.93	20114.6
733.271	20087.93
733.612	20011.55
733.953	20092.45
734.294	20141.04
734.635	20040.7
734.976	20120.25
735.317	20005
735.658	20052.23
735.999	20004.32
736.339	19956.18
736.68	20070.31
737.021	20091.32
737.361	20027.59
737.702	20158.21
738.042	20073.47
738.383	20071.66
738.723	20097.42
739.063	20049.97
739.404	20095.84
739.744	20070.31
740.084	20083.86
740.424	20082.51
740.764	20026.01
741.104	20179
741.444	20037.99
741.784	20098.33
742.124	20101.49
742.464	19883.19
742.804	20094.03
743.143	20070.31
743.483	20094.71
743.823	20043.41
744.162	20054.26
744.502	20143.07
744.841	20099.91
745.181	20229.4
745.52	20093.36
745.86	20059.91
746.199	20049.97
746.538	20072.34
746.877	20190.53
747.216	20244.54
747.556	20241.83
747.895	20247.93
748.234	20298.32
748.573	20172
748.911	20271.88
749.25	20372.9
749.589	20184.2
749.928	20367.25
750.267	20406.12
750.605	20409.96
750.944	20462.84
751.283	20284.76
751.621	20361.37
751.96	20369.28
752.298	20454.25
752.636	20444.99
752.975	20502.16
753.313	20536.28
753.651	20634.58
753.989	20443.18
754.327	20563.17
754.666	20429.17
755.004	20607.92
755.342	20517.53
755.679	20713.23
756.017	20578.77
756.355	20677.07
756.693	20705.54
757.031	20761.59
757.368	20577.64
757.706	20558.43
758.044	20643.85
758.381	20736.5
758.719	20581.03
759.056	20733.79
759.394	20783.73
759.731	20597.07
760.068	20583.51
760.405	20628.71
760.743	20529.5
761.08	20635.26
761.417	20673.23
761.754	20553.91
762.091	20633
762.428	20547.13
762.765	20425.78
763.102	20472.1
763.438	20556.62
763.775	20344.42
764.112	20494.02
764.449	20478.88
764.785	20340.36
765.122	20291.32
765.458	20229.85
765.795	20227.14
766.131	20301.03
766.467	20209.74
766.804	20016.07
767.14	20089.29
767.476	20073.02
767.812	20051.55
768.148	20062.17
768.485	19932.46
768.821	19852.91
769.157	19804.32
769.492	19815.17
769.828	19749.18
770.164	19576.31
770.5	19610.88
770.836	19531.34
771.171	19592.8
771.507	19452.47
771.842	19313.94
772.178	19395.75
772.513	19347.61
772.849	19261.97
773.184	19271.23
773.519	19086.83
773.855	19024.91
774.19	18981.29
774.525	18992.82
774.86	18992.82
775.195	18974.29
775.53	18886.38
775.865	18753.96
776.2	18764.13
776.535	18568.88
776.87	18578.82
777.205	18460.86
777.539	18441.42
777.874	18487.75
778.209	18394.64
778.543	18381.31
778.878	18203.69
779.212	18113.07
779.547	18109.45
779.881	18101.77
780.215	17916.46
780.55	17942.45
780.884	17836.92
781.218	17810.48
781.552	17899.52
781.886	17788.56
782.22	17747.88
782.554	17584.04
782.888	17474.22
783.222	17424.5
783.556	17315.35
783.889	17368.91
784.223	17222.92
784.557	17317.16
784.89	17295.46
785.224	17113.1
785.557	17001.91
785.891	16971.86
786.224	16889.82
786.558	16970.95
786.891	16938.64
787.224	16673.78
787.557	16663.62
787.891	16627.23
788.224	16552.43
788.557	16617.74
788.89	16484.64
789.223	16509.95
789.556	16379.1
789.888	16348.14
790.221	16265.66
790.554	16118.77
790.887	16195.61
791.219	16078.32
791.552	16150.63
791.884	15914.26
792.217	15995.84
792.549	15927.82
792.882	15779.34
793.214	15732.11
793.546	15657.99
793.879	15564.21
794.211	15525.34
794.543	15555.4
794.875	15511.1
795.207	15575.28
795.539	15486.47
795.871	15284.44
796.203	15336.42
796.535	15206.93
796.867	15208.29
797.198	15175.29
797.53	15102.75
797.862	14974.17
798.193	15085.13
798.525	14851.91
798.856	15013.26
799.188	14824.34
799.519	14865.92
799.85	14730.11
800.182	14701.86
800.513	14819.37
800.844	14559.26
801.175	14738.69
801.506	14578.92
801.837	14545.71
802.168	14503.45
802.499	14545.48
802.83	14422.54
803.161	14329.44
803.491	14344.81
803.822	14360.63
804.153	14235.43
804.483	14182.1
804.814	14116.11
805.145	14167.41
805.475	14178.94
805.805	14019.62
806.136	14063.23
806.466	13966.29
806.796	13963.12
807.126	13833.63
807.457	13883.12
807.787	13907.53
808.117	13780.08
808.447	13776.23
808.777	13765.16
809.107	13661.66
809.436	13691.72
809.766	13573.08
810.096	13583.24
810.426	13488.11
810.755	13573.53
811.085	13489.46
811.414	13546.41
811.744	13442.91
812.073	13468.67
812.403	13346.87
812.732	13289.69
813.061	13374.89
813.39	13281.33
813.719	13157.94
814.049	13315.91
814.378	13264.83
814.707	13182.13
815.036	13190.71
815.365	13069.36
815.693	13093.77
816.022	13022.13
816.351	12989.59
816.68	12971.51
817.008	13058.29
817.337	12880.89
817.665	12894
817.994	12906.88
818.322	12948.68
818.651	12821
818.979	12732.42
819.307	12784.85
819.636	12851.51
819.964	12701.23
820.292	12737.17
820.62	12711.63
820.948	12723.15
821.276	12788.69
821.604	12723.15
821.932	12804.51
822.259	12798.86
822.587	12759.31
822.915	12722.25
823.243	12689.48
823.57	12761.57
823.898	12769.25
824.225	12708.47
824.553	12679.77
824.88	12724.96
825.207	12688.13
825.535	12660.56
825.862	12776.94
826.189	12704.4
826.516	12805.86
826.843	12801.8
827.17	12820.55
827.497	12761.12
827.824	12806.77
828.151	12819.42
828.478	12713.44
828.805	12796.37
829.131	12681.35
829.458	12784.62
829.785	12603.16
830.111	12631.63
830.438	12693.1
830.764	12727.9
831.09	12783.04
831.417	12679.09
831.743	12805.19
832.069	12742.81
832.395	12678.18
832.722	12686.09
833.048	12646.55
833.374	12689.03
833.7	12617.85
834.026	12689.93
834.351	12576.94
834.677	12700.33
835.003	12618.98
835.329	12658.52
835.654	12655.81
835.98	12501.92
836.306	12585.3
836.631	12497.62
836.956	12676.15
837.282	12633.44
837.607	12495.82
837.932	12543.95
838.258	12506.89
838.583	12535.81
838.908	12401.13
839.233	12475.25
839.558	12402.03
839.883	12388.7
840.208	12355.93
840.533	12343.73
840.858	12360.45
841.182	12322.94
841.507	12326.55
841.832	12277.52
842.156	12258.31
842.481	12262.15
842.805	12321.81
843.13	12185.54
843.454	12211.3
843.778	12062.61
844.103	12098.54
844.427	12083.62
844.751	12137.18
845.075	12103.51
845.399	12014.7
845.723	11907.36
846.047	11994.36
846.371	11894.02
846.695	11866.45
847.019	11826.45
847.343	11797.75
847.666	11750.75
847.99	11737.87
848.313	11637.76
848.637	11593.01
848.96	11648.83
849.284	11609.74
849.607	11495.16
849.931	11488.16
850.254	11435.73
850.577	11286.81
850.9	11280.48
851.223	11346.92
851.546	11294.49
851.869	11210.2
852.192	11236.87
852.515	11105.57
852.838	11065.34
853.161	11128.17
853.483	10977.44
853.806	10946.48
854.129	10936.99
854.451	10908.74
854.774	10800.27
855.096	10853.6
855.419	10796.65
855.741	10776.76
856.063	10691.8
856.385	10713.49
856.708	10618.35
857.03	10605.24
857.352	10568.41
857.674	10596.43
857.996	10580.39
858.318	10495.87
858.64	10511.01
858.961	10430.79
859.283	10376.55
859.605	10338.81
859.926	10437.56
860.248	10366.15
860.57	10290.22
860.891	10235.31
861.212	10286.38
861.534	10238.02
861.855	10148.31
862.176	10258.59
862.498	10241.19
862.819	10178.36
863.14	10141.3
863.461	10150.79
863.782	10136.56
864.103	10055.65
864.424	10098.36
864.745	10006.84
865.065	10038.25
865.386	10012.72
865.707	10006.16
866.027	9979.95
866.348	9921.65
866.668	9910.8
866.989	9890.46
867.309	9863.79
867.63	9849.11
867.95	9897.92
868.27	9846.85
868.59	9858.6
868.91	9812.04
869.23	9778.6
869.55	9746.74
869.87	9836.45
870.19	9712.16
870.51	9763.01
870.83	9784.47
871.15	9700.41
871.469	9684.82
871.789	9668.09
872.109	9760.52
872.428	9608.21
872.748	9674.65
873.067	9650.47
873.386	9651.14
873.706	9604.37
874.025	9565.95
874.344	9532.5
874.663	9542.67
874.982	9549.45
875.301	9532.28
875.62	9511.26
875.939	9492.73
876.258	9527.98
876.577	9394.43
876.896	9452.05
877.214	9421.32
877.533	9367.08
877.852	9416.35
878.17	9348.1
878.489	9338.16
878.807	9331.6
879.125	9366.63
879.444	9276.92
879.762	9318.05
880.08	9310.36
880.398	9238.73
880.716	9276.47
881.034	9289.35
881.352	9191.95
881.67	9227.65
881.988	9178.39
882.306	9147.65
882.624	9085.74
882.941	9146.75
883.259	9061.78
883.577	9104.27
883.894	9034.44
884.212	8968.9
884.529	9069.01
884.846	8983.82
885.164	8990.14
885.481	8919.64
885.798	8913.08
886.115	8930.03
886.432	8951.05
886.75	8842.8
887.067	8888.68
887.383	8813.65
887.7	8827.44
888.017	8790.15
888.334	8766.2
888.651	8746.54
888.967	8761.22
889.284	8723.94
889.6	8712.64
889.917	8591.06
890.233	8718.97
890.55	8632.64
890.866	8622.92
891.182	8561.46
891.498	8623.15
891.815	8588.35
892.131	8571.17
892.447	8471.97
892.763	8424.06
893.079	8367.34
893.395	8388.35
893.71	8365.75
894.026	8358.52
894.342	8299.99
894.657	8285.98
894.973	8332.08
895.289	8276.94
895.604	8312.2
895.92	8227.23
896.235	8231.07
896.55	8223.16
896.865	8181.8
897.181	8124.18
897.496	8137.29
897.811	8057.97
898.126	7978.42
898.441	8014.8
898.756	8025.88
899.071	7973.9
899.386	7902.94
899.7	7908.37
900.015	7847.12
900.33	7818.2
900.644	7785.2
900.959	7759.67
901.273	7729.39
901.588	7701.37
901.902	7711.76
902.216	7688.94
902.531	7700.24
902.845	7618.43
903.159	7593.35
903.473	7553.35
903.787	7565.78
904.101	7481.71
904.415	7489.17
904.729	7469.28
905.042	7421.6
905.356	7438.1
905.67	7330.98
905.984	7351.32
906.297	7363.3
906.611	7257.31
906.924	7252.11
907.237	7210.08
907.551	7247.14
907.864	7220.47
908.177	7199.23
908.491	7161.72
908.804	7114.04
909.117	7072.23
909.43	7121.95
909.743	7041.5
910.056	7059.57
910.368	7000.14
910.681	6938
910.994	6970.76
911.307	6931.44
911.619	6876.53
911.932	6865.91
912.244	6822.97
912.557	6839.24
912.869	6792.46
913.181	6735.97
913.494	6748.85
913.806	6688.96
914.118	6686.02
914.43	6665.01
914.742	6662.97
915.054	6596.99
915.366	6565.35
915.678	6533.03
915.99	6490.78
916.302	6461.4
916.613	6440.83
916.925	6467.73
917.236	6453.04
917.548	6425.69
917.859	6354.96
918.171	6348.86
918.482	6310.44
918.794	6284.68
919.105	6273.38
919.416	6190.9
919.727	6238.35
920.038	6164.68
920.349	6121.52
920.66	6123.33
920.971	6133.95
921.282	6125.81
921.593	6053.05
921.903	6031.58
922.214	6009.66
922.525	5990.68
922.835	5982.31
923.146	5914.07
923.456	5989.09
923.767	5880.62
924.077	5850.57
924.387	5895.31
924.697	5796.78
925.008	5815.31
925.318	5762.66
925.628	5801.3
925.938	5752.26
926.248	5746.16
926.558	5655.32
926.867	5624.58
927.177	5587.07
927.487	5595.66
927.796	5593.62
928.106	5569.44
928.416	5543.68
928.725	5530.57
929.034	5526.28
929.344	5502.78
929.653	5446.28
929.962	5408.09
930.271	5394.99
930.581	5370.35
930.89	5441.09
931.199	5344.37
931.508	5340.3
931.817	5305.72
932.125	5264.37
932.434	5293.97
932.743	5249.9
933.051	5189.34
933.36	5198.15
933.669	5172.62
933.977	5155.67
934.286	5121.77
934.594	5139.62
934.902	5058.04
935.21	5050.36
935.519	5032.06
935.827	5039.29
936.135	4975.11
936.443	4997.71
936.751	4976.01
937.059	4916.81
937.367	4883.13
937.674	4898.95
937.982	4899.41
938.29	4861.67
938.597	4879.74
938.905	4846.07
939.213	4806.98
939.52	4793.87
939.827	4829.8
940.135	4790.48
940.442	4716.81
940.749	4695.34
941.056	4804.04
941.363	4663.93
941.67	4692.4
941.977	4650.37
942.284	4594.78
942.591	4588.23
942.898	4590.94
943.205	4591.62
943.511	4509.36
943.818	4541.9
944.125	4512.3
944.431	4503.26
944.738	4451.28
945.044	4483.37
945.35	4442.69
945.657	4404.95
945.963	4371.96
946.269	4363.37
946.575	4364.73
946.881	4354.11
947.187	4338.29
947.493	4294.45
947.799	4287.9
948.105	4268.91
948.41	4223.04
948.716	4243.15
949.022	4206.09
949.327	4191.4
949.633	4149.37
949.938	4153.66
950.244	4129.93
950.549	4076.6
950.854	4079.31
951.16	4091.97
951.465	4099.65
951.77	4065.08
952.075	4068.69
952.38	4039.09
952.685	4035.02
952.99	4013.33
953.294	3957.96
953.599	3993.44
953.904	3917.06
954.209	3929.26
954.513	3928.81
954.818	3945.08
955.122	3887.45
955.426	3877.06
955.731	3820.11
956.035	3835.48
956.339	3804.52
956.643	3822.82
956.948	3797.97
957.252	3795.25
957.556	3754.8
957.86	3771.75
958.163	3722.03
958.467	3685.2
958.771	3690.17
959.075	3680.45
959.378	3650.4
959.682	3647.69
959.985	3627.8
960.289	3606.33
960.592	3594.13
960.896	3555.49
961.199	3586.9
961.502	3548.48
961.805	3541.02
962.108	3492.66
962.411	3541.93
962.714	3507.35
963.017	3497.18
963.32	3498.31
963.623	3475.71
963.926	3484.08
964.228	3408.14
964.531	3403.4
964.833	3418.77
965.136	3357.3
965.438	3370.18
965.741	3355.94
966.043	3326.57
966.345	3295.83
966.648	3268.49
966.95	3292.44
967.252	3277.98
967.554	3251.09
967.856	3266.45
968.158	3254.7
968.46	3237.53
968.761	3215.61
969.063	3174.48
969.365	3174.48
969.666	3193.24
969.968	3144.65
970.269	3178.77
970.571	3134.03
970.872	3129.28
971.174	3101.49
971.475	3090.87
971.776	3105.33
972.077	3066.46
972.378	3082.96
972.679	3070.75
972.98	3028.04
973.281	3005.44
973.582	3031.66
973.883	2980.59
974.183	3019
974.484	2980.13
974.785	2932.68
975.085	2956.86
975.386	2973.35
975.686	2922.73
975.986	2891.1
976.287	2926.8
976.587	2894.03
976.887	2895.62
977.187	2846.58
977.487	2875.05
977.787	2833.92
978.087	2836.86
978.387	2804.09
978.687	2784.43
978.987	2802.96
979.286	2769.07
979.586	2765.22
979.885	2745.56
980.185	2742.85
980.484	2723.64
980.784	2720.93
981.083	2712.8
981.382	2670.76
981.682	2700.37
981.981	2648.16
982.28	2658.56
982.579	2642.06
982.878	2661.27
983.177	2634.83
983.475	2670.76
983.774	2602.29
984.073	2568.62
984.372	2618.56
984.67	2564.33
984.969	2562.74
985.267	2575.62
985.566	2543.31
985.864	2510.09
986.162	2529.98
986.461	2525.23
986.759	2502.63
987.057	2485.46
987.355	2454.05
987.653	2452.24
987.951	2443.88
988.249	2423.31
988.547	2445.23
988.844	2427.61
989.142	2425.35
989.44	2407.27
989.737	2430.54
990.035	2374.5
990.332	2359.13
990.63	2385.35
990.927	2387.15
991.224	2335.4
991.521	2346.25
991.819	2304.22
992.116	2298.57
992.413	2299.02
992.71	2316.42
993.006	2286.14
993.303	2290.43
993.6	2256.99
993.897	2235.29
994.193	2223.54
994.49	2268.51
994.787	2240.49
995.083	2218.12
995.379	2181.28
995.676	2158.01
995.972	2171.79
996.268	2151.68
996.565	2178.35
996.861	2156.65
997.157	2127.95
997.453	2121.17
997.749	2128.18
998.044	2107.39
998.34	2102.42
998.636	2099.25
998.932	2091.12
999.227	2062.42
999.523	2049.54
999.818	2096.77
1000.114	2017.9
1000.409	2034.17
1000.704	2020.84
1001	2005.24
1001.295	1986.26
1001.59	2021.74
1001.885	1960.27
1002.18	1982.19
1002.475	1950.1
1002.77	1956.88
1003.065	1937.22
1003.359	1914.4
1003.654	1902.65
1003.949	1925.25
1004.243	1880.28
1004.538	1905.36
1004.832	1894.51
1005.127	1878.02
1005.421	1857.23
1005.715	1834.85
1006.009	1842.76
1006.304	1838.02
1006.598	1802.31
1006.892	1777.68
1007.186	1811.58
1007.48	1821.97
1007.773	1771.35
1008.067	1781.29
1008.361	1760.73
1008.655	1724.35
1008.948	1747.62
1009.242	1712.82
1009.535	1728.64
1009.829	1690.45
1010.122	1679.6
1010.415	1686.61
1010.708	1684.35
1011.001	1666.5
1011.295	1667.85
1011.588	1663.78
1011.881	1635.08
1012.173	1614.52
1012.466	1630.79
1012.759	1631.92
1013.052	1636.67
1013.344	1624.01
1013.637	1602.09
1013.93	1561.41
1014.222	1568.42
1014.514	1572.49
1014.807	1579.49
1015.099	1576.1
1015.391	1532.49
1015.683	1546.27
1015.976	1508.53
1016.268	1531.13
1016.56	1501.3
1016.851	1500.62
1017.143	1489.55
1017.435	1469.44
1017.727	1485.94
1018.018	1456.11
1018.31	1469.66
1018.602	1472.15
1018.893	1440.06
1019.185	1419.27
1019.476	1410.68
1019.767	1428.76
1020.058	1395.77
1020.35	1401.87
1020.641	1390.34
1020.932	1385.15
1021.223	1368.65
1021.514	1356.45
1021.804	1368.88
1022.095	1382.89
1022.386	1339.5
1022.677	1325.71
1022.967	1312.83
1023.258	1329.56
1023.548	1306.28
1023.839	1287.97
1024.129	1321.87
1024.419	1286.39
1024.709	1286.62
1025	1241.87
1025.29	1267.18
1025.58	1243.23
1025.87	1240.74
1026.16	1235.32
1026.449	1244.36
1026.739	1235.55
1027.029	1214.08
1027.319	1193.97
1027.608	1182.21
1027.898	1203.23
1028.187	1171.59
1028.477	1161.42
1028.766	1187.64
1029.055	1146.96
1029.344	1151.26
1029.634	1137.24
1029.923	1141.76
1030.212	1148.54
1030.501	1132.27
1030.79	1116.91
1031.078	1134.98
1031.367	1092.5
1031.656	1103.57
1031.945	1098.38
1032.233	1080.52
1032.522	1073.29
1032.81	1057.92
1033.099	1079.62
1033.387	1030.13
1033.675	1046.63
1033.963	1036
1034.251	1023.8
1034.54	1025.38
1034.828	1026.51
1035.116	1013.18
1035.403	1025.83
1035.691	1002.33
1035.979	999.17
1036.267	1012.73
1036.554	956.91
1036.842	991.71
1037.129	993.97
1037.417	967.76
1037.704	983.58
1037.992	971.6
1038.279	958.72
1038.566	978.83
1038.853	978.83
1039.14	978.83
