Data from 383_FLMS001491_007.txt Node
Date: Thu Apr 19 15:42:42 BST 2018
User: hsy
Spectrometer: FLMS00149
Trigger mode: 0
Integration Time (sec): 1.000000E-2
Scans to average: 10
Electric dark correction enabled: true
Nonlinearity correction enabled: false
Boxcar width: 0
XAxis mode: Wavelengths
Number of Pixels in Spectrum: 2048
>>>>>Begin Spectral Data<<<<<
341.393	-22.13
341.776	-22.13
342.16	-22.13
342.543	-49.93
342.927	-62.58
343.31	-47.44
343.693	-74.56
344.077	-66.65
344.46	-67.1
344.843	-57.39
345.226	-46.09
345.61	-23.94
345.993	-28.69
346.376	12.67
346.759	16.51
347.142	16.96
347.525	27.81
347.908	46.34
348.291	88.6
348.674	79.79
349.057	123.17
349.44	107.36
349.823	140.58
350.206	158.65
350.588	217.86
350.971	256.28
351.354	262.15
351.737	281.59
352.119	300.12
352.502	289.5
352.884	291.08
353.267	309.38
353.65	330.85
354.032	334.02
354.414	337.63
354.797	350.51
355.179	347.12
355.562	369.04
355.944	385.99
356.326	355.94
356.709	342.15
357.091	378.54
357.473	356.84
357.855	364.3
358.238	384.18
358.62	376.5
359.002	372.89
359.384	362.26
359.766	387.12
360.148	373.11
360.53	384.41
360.912	389.61
361.294	372.21
361.676	390.51
362.057	366.56
362.439	378.54
362.821	395.48
363.203	379.21
363.584	380.8
363.966	356.61
364.348	344.41
364.729	372.89
365.111	376.05
365.493	370.63
365.874	350.51
366.256	385.77
366.637	356.61
367.019	372.89
367.4	364.52
367.781	380.12
368.163	357.52
368.544	360.68
368.925	385.77
369.306	371.53
369.688	364.98
370.069	361.59
370.45	358.65
370.831	364.98
371.212	372.21
371.593	372.21
371.974	366.78
372.355	370.85
372.736	370.4
373.117	388.25
373.498	386.67
373.879	374.02
374.26	349.38
374.641	369.27
375.021	359.55
375.402	360.68
375.783	393.45
376.163	406.56
376.544	369.95
376.925	368.82
377.305	409.95
377.686	400.68
378.066	390.51
378.447	402.26
378.827	414.92
379.208	401.13
379.588	378.76
379.968	411.98
380.349	411.53
380.729	407.91
381.109	407.46
381.489	404.98
381.87	410.62
382.25	422.38
382.63	425.09
383.01	410.4
383.39	433.68
383.77	420.57
384.15	404.07
384.53	440
384.91	441.58
385.29	427.12
385.67	437.06
386.049	416.05
386.429	446.33
386.809	456.73
387.189	476.39
387.568	462.83
387.948	454.92
388.328	470.51
388.707	468.93
389.087	469.61
389.466	463.05
389.846	454.24
390.225	482.49
390.605	476.61
390.984	476.84
391.363	503.05
391.743	477.97
392.122	497.85
392.501	475.26
392.881	503.73
393.26	480
393.639	498.31
394.018	492.2
394.397	495.37
394.776	513.45
395.155	509.38
395.534	527.46
395.913	524.75
396.292	535.37
396.671	521.81
397.05	552.32
397.429	534.69
397.808	526.1
398.186	519.77
398.565	541.92
398.944	531.3
399.323	529.94
399.701	556.84
400.08	560.68
400.458	566.78
400.837	550.06
401.215	554.35
401.594	545.08
401.972	547.57
402.351	572.65
402.729	564.29
403.107	567.23
403.486	592.31
403.864	554.8
404.242	600.45
404.62	588.47
404.999	580.79
405.377	592.31
405.755	630.51
406.133	634.12
406.511	592.31
406.889	611.75
407.267	641.81
407.645	663.5
408.023	647
408.401	638.42
408.779	646.78
409.156	672.76
409.534	660.11
409.912	683.16
410.29	675.25
410.667	684.74
411.045	693.78
411.422	713.67
411.8	677.06
412.178	719.77
412.555	730.39
412.933	710.96
413.31	708.24
413.687	736.94
414.065	729.26
414.442	745.53
414.819	757.28
415.197	746.66
415.574	761.8
415.951	778.3
416.328	747.79
416.705	769.26
417.082	766.32
417.46	794.34
417.837	803.38
418.214	769.26
418.591	812.65
418.967	789.15
419.344	804.06
419.721	831.4
420.098	816.49
420.475	832.99
420.852	830.05
421.228	835.92
421.605	851.97
421.982	856.04
422.358	860.1
422.735	853.78
423.111	858.52
423.488	856.94
423.864	881.12
424.241	891.74
424.617	900.78
424.994	887.22
425.37	908.01
425.746	926.32
426.123	917.5
426.499	936.03
426.875	952.76
427.251	957.73
427.627	956.6
428.003	997.05
428.379	958.63
428.756	993.21
429.132	1022.59
429.507	1011.29
429.883	1020.78
430.259	1030.95
430.635	1071.62
431.011	1050.61
431.387	1075.69
431.763	1099.42
432.138	1086.99
432.514	1085.64
432.89	1102.58
433.265	1111.4
433.641	1157.27
434.016	1163.83
434.392	1172.64
434.767	1160.44
435.143	1173.32
435.518	1190.27
435.894	1204.05
436.269	1222.35
436.644	1213.77
437.02	1235.46
437.395	1232.52
437.77	1256.03
438.145	1266.65
438.52	1280.43
438.895	1289.02
439.271	1270.72
439.646	1318.62
440.021	1309.81
440.395	1309.36
440.77	1318.17
441.145	1335.35
441.52	1358.85
441.895	1353.65
442.27	1368.11
442.645	1357.27
443.019	1370.6
443.394	1408.56
443.769	1409.02
444.143	1397.04
444.518	1409.24
444.892	1415.34
445.267	1439.07
445.641	1436.81
446.016	1435.46
446.39	1433.42
446.764	1465.51
447.139	1450.15
447.513	1459.64
447.887	1499.64
448.262	1491.27
448.636	1513.19
449.01	1539.63
449.384	1520.88
449.758	1542.57
450.132	1572.4
450.506	1554.78
450.88	1572.4
451.254	1605.85
451.628	1602.68
452.002	1614.89
452.376	1634.77
452.75	1668.67
453.123	1691.04
453.497	1685.62
453.871	1718.61
454.244	1726.97
454.618	1750.48
454.992	1793.41
455.365	1761.32
455.739	1823.47
456.112	1805.62
456.486	1878.16
456.859	1843.13
457.232	1866.18
457.606	1893.75
457.979	1938.27
458.352	1919.96
458.725	1974.88
459.099	1999.28
459.472	2008.77
459.845	2042.22
460.218	2049.45
460.591	2096.46
460.964	2113.63
461.337	2129.22
461.71	2169
462.083	2233.18
462.456	2192.05
462.829	2204.7
463.201	2277.92
463.574	2292.16
463.947	2285.15
464.32	2306.62
464.692	2324.92
465.065	2372.38
465.438	2388.88
465.81	2423.91
466.183	2446.05
466.555	2518.59
466.928	2487.18
467.3	2522.21
467.672	2525.6
468.045	2608.08
468.417	2632.94
468.789	2628.87
469.161	2641.07
469.534	2699.15
469.906	2753.84
470.278	2777.34
470.65	2794.74
471.022	2842.2
471.394	2899.6
471.766	2905.25
472.138	2937.11
472.51	3012.36
472.882	3070.67
473.253	3072.25
473.625	3156.77
473.997	3204.22
474.369	3187.5
474.74	3207.39
475.112	3305.92
475.484	3345.91
475.855	3451.67
476.227	3429.98
476.598	3509.75
476.97	3550.66
477.341	3636.75
477.713	3716.07
478.084	3739.12
478.455	3849.86
478.827	3829.07
479.198	3983.19
479.569	3979.57
479.94	4116.52
480.311	4189.51
480.682	4258.43
481.053	4323.29
481.424	4426.34
481.795	4454.13
482.166	4558.54
482.537	4650.06
482.908	4711.98
483.279	4813.67
483.65	4883.05
484.021	5036.27
484.391	5052.54
484.762	5189.93
485.133	5205.53
485.503	5275.81
485.874	5432.64
486.244	5483.03
486.615	5673.09
486.985	5687.32
487.356	5831.95
487.726	5920.54
488.097	6060.65
488.467	6141.32
488.837	6331.37
489.207	6367.3
489.578	6510.35
489.948	6701.98
490.318	6762.77
490.688	6763.45
491.058	7003.67
491.428	7113.5
491.798	7199.82
492.168	7396.43
492.538	7505.35
492.908	7629.87
493.278	7744.44
493.648	7834.61
494.017	8053.81
494.387	8170.42
494.757	8347.14
495.126	8355.95
495.496	8526.12
495.866	8736.96
496.235	8850.18
496.605	8981.02
496.974	9146.21
497.344	9271.63
497.713	9508.46
498.082	9557.95
498.452	9811.51
498.821	9882.01
499.19	9983.03
499.559	10198.84
499.928	10352.74
500.298	10554.09
500.667	10758.83
501.036	10868.88
501.405	11038.59
501.774	11103.9
502.143	11402.88
502.512	11545.47
502.88	11722.87
503.249	11899.36
503.618	12105.23
503.987	12240.6
504.356	12535.73
504.724	12631.55
505.093	12798.32
505.462	12976.85
505.83	13173.68
506.199	13391.98
506.567	13561.69
506.936	13671.97
507.304	14049.81
507.672	14193.77
508.041	14281.67
508.409	14572.29
508.777	14760.53
509.145	14955.33
509.514	15148.32
509.882	15404.81
510.25	15508.76
510.618	15736.1
510.986	15755.98
511.354	16053.38
511.722	16293.37
512.09	16432.12
512.458	16571.56
512.826	16833.02
513.193	16927.7
513.561	17190.75
513.929	17354.13
514.297	17663.73
514.664	17798.19
515.032	17974.23
515.4	18223.26
515.767	18235.47
516.135	18371.28
516.502	18419.19
516.869	18836.81
517.237	19133.97
517.604	19017.37
517.972	19416.45
518.339	19531.7
518.706	19637.92
519.073	19799.49
519.44	19902.99
519.808	20256.43
520.175	20244.68
520.542	20672.92
520.909	20792.91
521.276	20848.73
521.643	21210.98
522.009	21317.65
522.376	21483.74
522.743	21625.43
523.11	21876.73
523.477	22156.95
523.843	22291.86
524.21	22582.47
524.577	22695.01
524.943	22811.17
525.31	22937.26
525.676	23217.48
526.043	23421.77
526.409	23571.6
526.776	23841.42
527.142	24036.9
527.508	24092.49
527.874	24345.14
528.241	24493.61
528.607	24555.75
528.973	24837.1
529.339	24854.05
529.705	25211.1
530.071	25346.47
530.437	25548.04
530.803	25689.06
531.169	25755.04
531.535	25870.97
531.901	26023.28
532.267	26162.49
532.632	26247.46
532.998	26547.79
533.364	26611.97
533.73	26771.51
534.095	26942.81
534.461	26915.46
534.826	27129.7
535.192	27188.23
535.557	27357.49
535.923	27386.41
536.288	27533.3
536.653	27504.6
537.019	27585.28
537.384	27799.96
537.749	27852.62
538.114	28034.76
538.479	27926.96
538.845	28023.68
539.21	28068.2
539.575	28115.43
539.94	28317.01
540.305	28408.76
540.67	28393.62
541.034	28534.86
541.399	28610.34
541.764	28645.59
542.129	28672.93
542.494	28940.72
542.858	28874.74
543.223	28800.84
543.587	29107.72
543.952	29037.22
544.316	29107.95
544.681	29106.59
545.045	29259.13
545.41	29282.18
545.774	29318.79
546.138	29421.61
546.503	29461.16
546.867	29524.66
547.231	29839.91
547.595	29742.73
547.959	29819.12
548.324	29956.29
548.688	29894.82
549.052	30038.77
549.416	29918.55
549.779	30050.75
550.143	30096.85
550.507	30281.48
550.871	30274.7
551.235	30311.31
551.599	30486.44
551.962	30476.5
552.326	30671.75
552.689	30695.7
553.053	30549.95
553.417	30725.53
553.78	31017.5
554.143	31074.9
554.507	31188.12
554.87	31100.21
555.234	31439.64
555.597	31178.18
555.96	31432.86
556.323	31634.44
556.686	31578.84
557.05	31775.22
557.413	31795.79
557.776	31828.1
558.139	32131.6
558.502	32138.6
558.865	32151.03
559.228	32356.23
559.59	32447.52
559.953	32532.94
560.316	32783.33
560.679	32743.33
561.041	32965.02
561.404	33074.62
561.767	33299.7
562.129	33234.85
562.492	33495.18
562.854	33442.98
563.217	33550.09
563.579	33665.8
563.941	33954.15
564.304	34072.56
564.666	34331.31
565.028	34357.08
565.39	34361.37
565.753	34627.35
566.115	34628.71
566.477	34751.19
566.839	34904.86
567.201	35189.82
567.563	35049.04
567.925	35407.22
568.287	35328.58
568.648	35436.82
569.01	35689.7
569.372	36084.49
569.734	35863.25
570.095	36234.32
570.457	36392.73
570.819	36252.39
571.18	36408.1
571.542	36695.55
571.903	36513.63
572.265	36660.52
572.626	36894.41
572.987	36835.66
573.349	37077.23
573.71	37157.23
574.071	37260.73
574.432	37504.11
574.794	37648.06
575.155	37519.93
575.516	37545.92
575.877	37643.32
576.238	37701.4
576.599	37858.68
576.96	37881.73
577.32	38125.11
577.681	38079.92
578.042	38194.49
578.403	38014.61
578.763	38099.13
579.124	38138.67
579.485	38416.41
579.845	38455.73
580.206	38302.28
580.566	38443.07
580.927	38319.46
581.287	38555.16
581.648	38309.06
582.008	38676.51
582.368	38541.37
582.728	38575.05
583.089	38540.47
583.449	38448.27
583.809	38618.21
584.169	38542.28
584.529	38378.89
584.889	38748.37
585.249	38504.76
585.609	38373.69
585.969	38644.2
586.329	38307.71
586.688	38595.61
587.048	38535.05
587.408	38504.54
587.768	38449.85
588.127	38502.28
588.487	38486.01
588.846	38566.23
589.206	38343.41
589.565	38238.1
589.925	38487.36
590.284	38373.24
590.643	38347.03
591.003	38379.34
591.362	38609.85
591.721	38417.54
592.08	38367.59
592.44	38586.12
592.799	38468.83
593.158	38424.99
593.517	38417.54
593.876	38535.05
594.235	38418.66
594.593	38511.77
594.952	38615.5
595.311	38390.42
595.67	38505.22
596.029	38623.18
596.387	38542.5
596.746	38728.49
597.104	38344.77
597.463	38486.23
597.822	38848.71
598.18	38535.27
598.538	38449.4
598.897	38750.41
599.255	38389.97
599.613	38828.15
599.972	38645.55
600.33	38651.65
600.688	38557.19
601.046	38591.77
601.404	38907.69
601.762	38819.78
602.12	39033.79
602.478	38991.08
602.836	38994.02
603.194	38769.16
603.552	39030.4
603.91	38899.1
604.268	39034.47
604.625	38909.05
604.983	39027.91
605.341	39021.81
605.698	39352.88
606.056	39383.84
606.413	39112.21
606.771	39335.48
607.128	39289.83
607.485	39262.03
607.843	39307.23
608.2	39459.54
608.557	39587.67
608.914	39510.16
609.272	39667.22
609.629	39814.79
609.986	39763.26
610.343	39702.47
610.7	40079.86
611.057	39936.14
611.414	39925.97
611.771	40029.47
612.127	40128.9
612.484	40123.25
612.841	40297.94
613.198	40002.35
613.554	40066.98
613.911	40313.08
614.267	40482.34
614.624	40389.46
614.98	40540.19
615.337	40648.44
615.693	40646.63
616.05	40586.97
616.406	40751.03
616.762	40619.29
617.118	40730.69
617.475	40723.46
617.831	40892.72
618.187	40848.43
618.543	40857.7
618.899	41028.09
619.255	41107.18
619.611	41048.88
619.967	41306.5
620.323	41411.81
620.678	41119.61
621.034	41260.62
621.39	41115.32
621.746	41058.82
622.101	41525.48
622.457	41174.07
622.812	41295.2
623.168	41444.35
623.523	41317.12
623.879	41588.98
624.234	41313.5
624.589	41537.9
624.945	41445.03
625.3	41534.06
625.655	41585.59
626.01	41544.68
626.365	41600.05
626.72	41568.64
627.075	41382.43
627.43	41508.75
627.785	41389.43
628.14	41587.85
628.495	41419.49
628.85	41503.56
629.205	41448.64
629.559	41559.6
629.914	41302.2
630.269	41401.64
630.623	41236.22
630.978	41111.25
631.332	41400.51
631.687	41391.24
632.041	41255.43
632.396	41231.47
632.75	41260.4
633.104	41318.48
633.459	41032.16
633.813	41005.49
634.167	40943.34
634.521	40991.93
634.875	40961.87
635.229	40776.12
635.583	40655.22
635.937	40659.28
636.291	40518.27
636.645	40610.47
636.999	40372.51
637.352	40572.73
637.706	40269.69
638.06	40602.56
638.413	40376.81
638.767	40333.87
639.121	40351.95
639.474	40196.25
639.828	40172.74
640.181	40213.87
640.534	40345.62
640.888	40078.06
641.241	39726.2
641.594	39925.97
641.947	40025.85
642.301	39943.14
642.654	39756.26
643.007	39754.22
643.36	39857.27
643.713	39688.01
644.066	39823.15
644.419	39649.37
644.771	39193.11
645.124	38897.97
645.477	38882.83
645.83	38669.96
646.182	38752.89
646.535	38557.87
646.888	38740.24
647.24	38542.73
647.593	38891.19
647.945	38536.85
648.298	38576.63
648.65	38402.62
649.002	38110.88
649.355	38017.55
649.707	37872.01
650.059	37860.04
650.411	38509.74
650.763	38652.78
651.115	39264.74
651.467	39051.87
651.819	39152.43
652.171	39097.52
652.523	38941.14
652.875	39064.07
653.227	38897.3
653.578	39070.63
653.93	38989.5
654.282	38718.32
654.633	38784.98
654.985	38793.34
655.337	38923.74
655.688	38728.26
656.039	38953.79
656.391	38618.43
656.742	38737.53
657.094	38681.71
657.445	38815.94
657.796	38810.07
658.147	38674.03
658.498	38862.27
658.849	38837.19
659.2	38645.78
659.551	38664.31
659.902	38976.39
660.253	38787.02
660.604	38813.46
660.955	38679
661.306	38831.54
661.656	38671.31
662.007	38799.67
662.358	38844.87
662.708	38810.07
663.059	38915.15
663.409	38654.82
663.76	38769.39
664.11	38809.84
664.461	38822.95
664.811	38843.06
665.161	38887.81
665.511	38740.69
665.862	38739.11
666.212	38857.75
666.562	38716.51
666.912	38847.81
667.262	38648.26
667.612	38537.53
667.962	38827.92
668.312	38700.69
668.662	39069.5
669.011	38734.81
669.361	38727.58
669.711	38735.94
670.06	38687.81
670.41	38666.79
670.76	38568.49
671.109	38750.63
671.459	38796.51
671.808	38506.8
672.157	38813.68
672.507	38492.79
672.856	38617.76
673.205	38501.37
673.554	38646.46
673.904	38466.8
674.253	38802.61
674.602	38524.65
674.951	38169.41
675.3	37805.8
675.649	38454.37
675.998	38463.41
676.346	38334.15
676.695	38489.17
677.044	38261.15
677.393	38205.34
677.741	38389.29
678.09	38154.94
678.438	38104.77
678.787	38123.08
679.135	38095.96
679.484	38050.99
679.832	38038.79
680.181	37912.92
680.529	37938.45
680.877	37803.54
681.225	37768.74
681.573	37995.63
681.922	37629.76
682.27	37675.41
682.618	37686.03
682.966	37594.96
683.314	37622.53
683.661	37567.39
684.009	37386.83
684.357	37182.54
684.705	37042.2
685.053	37262.99
685.4	36992.71
685.748	37087.17
686.095	36881.3
686.443	36640.63
686.79	36716.79
687.138	36817.35
687.485	36709.56
687.832	36366.29
688.18	36381.2
688.527	36252.62
688.874	36266.86
689.221	36294.65
689.568	36197.48
689.915	36047.88
690.262	36080.65
690.609	35992.51
690.956	35762.01
691.303	35814.67
691.65	35587.78
691.997	35539.42
692.344	35481.79
692.69	35301.46
693.037	35301.46
693.383	35014.23
693.73	35078.87
694.077	34746.45
694.423	34867.8
694.769	34682.94
695.116	34621.02
695.462	34431.2
695.808	34291.77
696.155	34402.05
696.501	34075.73
696.847	34159.12
697.193	33935.62
697.539	33926.35
697.885	33634.38
698.231	33725.23
698.577	33544.44
698.923	33581.05
699.269	33418.8
699.614	33261.06
699.96	33094.29
700.306	33021.97
700.651	32955.53
700.997	32744.92
701.342	32788.76
701.688	32633.51
702.033	32539.95
702.379	32567.97
702.724	32291.59
703.069	32405.26
703.415	32077.81
703.76	32049.34
704.105	32026.29
704.45	32021.77
704.795	31866.97
705.14	31610.48
705.485	31744.04
705.83	31454.1
706.175	31587.66
706.52	31404.61
706.865	31269.47
707.209	31147.44
707.554	31137.05
707.899	31136.6
708.243	30828.81
708.588	30837.4
708.932	30641.69
709.277	30771.63
709.621	30617.51
709.966	30434.02
710.31	30291.2
710.654	30271.99
710.998	30305.21
711.342	30324.41
711.687	30232.89
712.031	30095.27
712.375	30048.49
712.719	29833.58
713.063	29746.12
713.407	30022.28
713.75	29909.74
714.094	29757.2
714.438	29648.5
714.782	29627.03
715.125	29398.79
715.469	29650.99
715.812	29374.38
716.156	29373.93
716.499	29320.15
716.843	29475.4
717.186	29185.24
717.53	29303.2
717.873	29366.25
718.216	29148.63
718.559	29095.52
718.902	28948.41
719.246	28939.82
719.589	28898.24
719.932	28773.95
720.275	28736.43
720.617	28694.4
720.96	28546.38
721.303	28860.72
721.646	28636.1
721.989	28483.11
722.331	28704.8
722.674	28402.21
723.016	28545.7
723.359	28512.48
723.701	28436.1
724.044	28482.2
724.386	28341.87
724.729	28476.55
725.071	28361.3
725.413	28285.82
725.755	28302.77
726.097	28282.21
726.439	28194.08
726.782	28024.36
727.124	28192.27
727.465	28129.22
727.807	28088.99
728.149	28084.93
728.491	28031.37
728.833	28046.96
729.175	28040.63
729.516	27888.77
729.858	27934.42
730.199	28032.72
730.541	28031.82
730.882	28005.61
731.224	28006.74
731.565	27865.5
731.906	27891.26
732.248	27953.63
732.589	27781.43
732.93	27792.05
733.271	27923.35
733.612	27879.28
733.953	27992.27
734.294	27841.32
734.635	27735.56
734.976	28022.33
735.317	27864.37
735.658	27852.39
735.999	27804.48
736.339	27851.26
736.68	27836.8
737.021	27843.35
737.361	27872.5
737.702	28031.37
738.042	27976.23
738.383	27963.12
738.723	28125.38
739.063	27855.33
739.404	28106.17
739.744	27996.11
740.084	27850.81
740.424	27958.6
740.764	27910.92
741.104	28135.77
741.444	27980.52
741.784	27901.2
742.124	28078.6
742.464	28022.33
742.804	28009.9
743.143	28045.38
743.483	28175.32
743.823	28129.22
744.162	28089.67
744.502	28210.12
744.841	28088.99
745.181	28373.05
745.52	28278.37
745.86	28306.16
746.199	28423
746.538	28392.49
746.877	28497.8
747.216	28566.27
747.556	28581.18
747.895	28623.89
748.234	28638.36
748.573	28502.77
748.911	28546.61
749.25	28695.3
749.589	28554.29
749.928	28750.44
750.267	28843.1
750.605	28891.46
750.944	28967.84
751.283	29007.39
751.621	29102.3
751.96	28960.38
752.298	29093.26
752.636	29228.4
752.975	29090.1
753.313	29174.39
753.651	29271.56
753.989	29315.85
754.327	29364.44
754.666	29138.46
755.004	29452.35
755.342	29498.67
755.679	29441.95
756.017	29336.64
756.355	29715.62
756.693	29607.15
757.031	29709.29
757.368	29516.75
757.706	29720.14
758.044	29634.26
758.381	29693.92
758.719	29663.87
759.056	29669.74
759.394	29729.85
759.731	29650.99
760.068	29712.45
760.405	29840.36
760.743	29680.14
761.08	29862.28
761.417	29789.97
761.754	29665.67
762.091	29800.36
762.428	29649.63
762.765	29672.23
763.102	29731.66
763.438	29841.26
763.775	29566.92
764.112	29596.52
764.449	29652.12
764.785	29683.08
765.122	29588.61
765.458	29673.13
765.795	29552.01
766.131	29595.62
766.467	29455.96
766.804	29520.14
767.14	29219.13
767.476	29267.04
767.812	29336.19
768.148	29360.6
768.485	29274.72
768.821	29111.57
769.157	29055.3
769.492	28995.18
769.828	28931.23
770.164	28854.85
770.5	28824.34
770.836	28851.01
771.171	28796.32
771.507	28704.12
771.842	28557.91
772.178	28614.18
772.513	28523.56
772.849	28287.63
773.184	28343
773.519	28336.9
773.855	28108.2
774.19	28125.83
774.525	28029.79
774.86	27989.11
775.195	27964.25
775.53	27703.47
775.865	27670.02
776.2	27566.97
776.535	27489.01
776.87	27279.75
777.205	27304.83
777.539	27327.21
777.874	27243.37
778.209	26995.01
778.543	26876.14
778.878	26887.67
779.212	26777.62
779.547	26597.51
779.881	26593.21
780.215	26451.97
780.55	26458.75
780.884	26357.51
781.218	26246.78
781.552	26375.37
781.886	26203.62
782.22	26053.11
782.554	26029.16
782.888	25680.47
783.222	25686.34
783.556	25563.41
783.889	25516.18
784.223	25368.39
784.557	25349.18
784.89	25369.06
785.224	25231.44
785.557	25024.44
785.891	24993.03
786.224	24965.91
786.558	25011.56
786.891	24809.76
787.224	24788.06
787.557	24641.17
787.891	24647.73
788.224	24360.5
788.557	24381.97
788.89	24404.34
789.223	24356.44
789.556	24129.55
789.888	24232.82
790.221	24038.7
790.554	23828.54
790.887	23935.66
791.219	23722.33
791.552	23649.11
791.884	23651.6
792.217	23580.86
792.549	23496.12
792.882	23350.81
793.214	23255.67
793.546	23320.53
793.879	23108.56
794.211	22987.43
794.543	23205.28
794.875	22938.17
795.207	22954.89
795.539	22907.21
795.871	22825.18
796.203	22737.95
796.535	22552.42
796.867	22556.71
797.198	22428.35
797.53	22361.69
797.862	22217.06
798.193	22400.33
798.525	22201.24
798.856	22231.97
799.188	22028.36
799.519	21881.25
799.85	21823.17
800.182	21821.36
800.513	21862.49
800.844	21562.84
801.175	21817.52
801.506	21643.29
801.837	21596.51
802.168	21476.29
802.499	21551.76
802.83	21289.4
803.161	21289.62
803.491	21220.93
803.822	21332.56
804.153	21083.08
804.483	20973.25
804.814	20860.26
805.145	20858.67
805.475	20903.65
805.805	20820.48
806.136	20813.7
806.466	20700.26
806.796	20669.53
807.126	20668.85
807.457	20523.54
807.787	20577.1
808.117	20378.01
808.447	20317.22
808.777	20411.91
809.107	20289.65
809.436	20290.78
809.766	20265.24
810.096	20177.56
810.426	20098.24
810.755	20184.12
811.085	20050.56
811.414	19976.66
811.744	19959.49
812.073	19916.1
812.403	19892.82
812.732	19673.4
813.061	19894.41
813.39	19525.83
813.719	19663
814.049	19706.84
814.378	19557.01
814.707	19514.3
815.036	19563.79
815.365	19413.74
815.693	19298.94
816.022	19317.92
816.351	19268.66
816.68	19114.54
817.008	19209.45
817.337	18947.54
817.665	19038.84
817.994	19051.26
818.322	19184.82
818.651	18935.34
818.979	18966.52
819.307	18904.38
819.636	18900.76
819.964	18830.93
820.292	18862.12
820.62	18804.27
820.948	18956.58
821.276	18957.03
821.604	18797.49
821.932	18883.81
822.259	18869.12
822.587	18797.03
822.915	18812.63
823.243	18849.46
823.57	18745.96
823.898	18922.23
824.225	18785.28
824.553	18830.25
824.88	18808.56
825.207	18733.76
825.535	18704.83
825.862	18795.23
826.189	18709.13
826.516	18910.7
826.843	18913.42
827.17	18938.05
827.497	18829.35
827.824	18846.07
828.151	18941.66
828.478	18686.3
828.805	18969.23
829.131	18885.62
829.458	18930.59
829.785	18810.14
830.111	18858.73
830.438	18950.02
830.764	18904.6
831.09	18845.17
831.417	18684.49
831.743	18934.21
832.069	18911.16
832.395	18794.77
832.722	18833.87
833.048	18824.83
833.374	18780.54
833.7	18812.63
834.026	18831.61
834.351	18777.37
834.677	18721.1
835.003	18766.3
835.329	18731.5
835.654	18618.73
835.98	18672.07
836.306	18609.92
836.631	18588.9
836.956	18821.44
837.282	18703.7
837.607	18613.54
837.932	18590.94
838.258	18549.81
838.583	18529.7
838.908	18475.01
839.233	18411.06
839.558	18469.36
839.883	18433.65
840.208	18283.15
840.533	18427.55
840.858	18334.22
841.182	18244.28
841.507	18359.53
841.832	18171.29
842.156	18138.75
842.481	18165.86
842.805	18116.15
843.13	18049.71
843.454	18027.79
843.778	17975.36
844.103	17932.65
844.427	17838.19
844.751	17845.42
845.075	17884.06
845.399	17748.7
845.723	17702.15
846.047	17690.4
846.371	17492.21
846.695	17455.37
847.019	17411.99
847.343	17360.24
847.666	17372.66
847.99	17208.83
848.313	17151.88
848.637	17129.51
848.96	17083.86
849.284	17009.74
849.607	16863.75
849.931	16912.34
850.254	16758.67
850.577	16638.22
850.9	16548.73
851.223	16592.8
851.546	16611.1
851.869	16417.21
852.192	16573.59
852.515	16355.97
852.838	16247.95
853.161	16191.23
853.483	16205.24
853.806	16228.97
854.129	15996.2
854.451	16054.06
854.774	15884.57
855.096	15921.86
855.419	15899.48
855.741	15835.3
856.063	15746.04
856.385	15671.01
856.708	15657.23
857.03	15599.15
857.352	15583.79
857.674	15530.23
857.996	15465.82
858.318	15336.79
858.64	15438.93
858.961	15308.76
859.283	15358.71
859.605	15243.46
859.926	15250.69
860.248	15163.23
860.57	15152.61
860.891	15141.54
861.212	15080.3
861.534	14965.5
861.855	14886.63
862.176	14994.42
862.498	14904.26
862.819	15038.94
863.14	14844.6
863.461	14825.84
863.782	14762.34
864.103	14849.57
864.424	14791.26
864.745	14766.86
865.065	14688.22
865.386	14673.98
865.707	14687.31
866.027	14650.93
866.348	14631.49
866.668	14549.24
866.989	14556.92
867.309	14453.87
867.63	14484.38
867.95	14493.19
868.27	14438.96
868.59	14492.97
868.91	14361.9
869.23	14354.66
869.55	14298.4
869.87	14379.07
870.19	14300.2
870.51	14421.33
870.83	14353.76
871.15	14224.95
871.469	14141.56
871.789	14220.43
872.109	14157.61
872.428	13988.8
872.748	14092.07
873.067	14118.96
873.386	14080.77
873.706	14131.17
874.025	14066.31
874.344	13951.96
874.663	14042.13
874.982	13908.12
875.301	13954.22
875.62	13782.93
875.939	13872.64
876.258	13808.92
876.577	13796.26
876.896	13771.63
877.214	13755.13
877.533	13783.83
877.852	13752.65
878.17	13769.6
878.489	13749.94
878.807	13694.34
879.125	13724.63
879.444	13650.95
879.762	13473.78
880.08	13684.63
880.398	13553.1
880.716	13595.59
881.034	13498.87
881.352	13533.44
881.67	13375.26
881.988	13430.85
882.306	13403.73
882.624	13440.11
882.941	13359.66
883.259	13296.39
883.577	13293.68
883.894	13288.25
884.212	13250.97
884.529	13189.72
884.846	13109.5
885.164	13116.73
885.481	13021.37
885.798	13116.28
886.115	13001.71
886.432	13020.01
886.75	13012.78
887.067	13047.81
887.383	12947.92
887.7	12929.84
888.017	12840.13
888.334	12856.17
888.651	12852.56
888.967	12782.05
889.284	12629.06
889.6	12630.64
889.917	12688.04
890.233	12646.01
890.55	12632.22
890.866	12592.45
891.182	12526.24
891.498	12487.14
891.815	12472.45
892.131	12427.03
892.447	12398.33
892.763	12327.6
893.079	12304.78
893.395	12301.84
893.71	12259.35
894.026	12110.66
894.342	12226.59
894.657	12105.46
894.973	12114.95
895.289	12004.44
895.604	12032.47
895.92	11987.04
896.235	11921.06
896.55	11939.36
896.865	11860.72
897.181	11892.13
897.496	11846.03
897.811	11734.85
898.126	11731.91
898.441	11607.62
898.756	11690.55
899.071	11557.22
899.386	11585.7
899.7	11480.39
900.015	11442.43
900.33	11383.22
900.644	11394.29
900.959	11396.32
901.273	11264.8
901.588	11315.87
901.902	11314.52
902.216	11181.64
902.531	11159.95
902.845	11179.16
903.159	11035.2
903.473	10998.82
903.787	11010.8
904.101	10924.25
904.415	10965.6
904.729	10915.89
905.042	10816.9
905.356	10808.32
905.67	10738.49
905.984	10730.13
906.297	10689.9
906.611	10621.43
906.924	10559.06
907.237	10601.09
907.551	10500.08
907.864	10529.23
908.177	10492.62
908.491	10424.15
908.804	10323.13
909.117	10273.87
909.43	10220.54
909.743	10193.19
910.056	10175.34
910.368	10161.1
910.681	10137.6
910.994	10103.7
911.307	10002.91
911.619	9950.71
911.932	9976.7
912.244	9875.23
912.557	9871.39
912.869	9869.36
913.181	9741
913.494	9764.05
913.806	9681.12
914.118	9765.63
914.43	9642.25
914.742	9683.6
915.054	9621.23
915.366	9542.59
915.678	9463.95
915.99	9511.4
916.302	9428.47
916.613	9382.37
916.925	9377.62
917.236	9348.02
917.548	9250.17
917.859	9244.06
918.171	9201.35
918.482	9074.13
918.794	9120.9
919.105	9059.66
919.416	8992.77
919.727	8954.35
920.038	8966.33
920.349	8931.3
920.66	8860.35
920.971	8880.23
921.282	8808.82
921.593	8767.69
921.903	8689.96
922.214	8618.09
922.525	8613.35
922.835	8587.13
923.146	8524.08
923.456	8543.52
923.767	8490.86
924.077	8549.62
924.387	8490.64
924.697	8396.18
925.008	8346.46
925.318	8374.03
925.628	8367.7
925.938	8311.66
926.248	8228.72
926.558	8164.32
926.867	8139.01
927.177	8147.37
927.487	8042.06
927.796	8069.86
928.106	8071.44
928.416	8007.71
928.725	8010.42
929.034	7971.1
929.344	7964.1
929.653	7866.47
929.962	7832.8
930.271	7779.24
930.581	7751
930.89	7677.55
931.199	7703.54
931.508	7671.22
931.817	7620.6
932.125	7643.43
932.434	7525.92
932.743	7474.39
933.051	7508.07
933.36	7481.17
933.669	7379.48
933.977	7465.35
934.286	7378.35
934.594	7375.41
934.902	7316.21
935.21	7236.66
935.519	7248.64
935.827	7235.76
936.135	7215.64
936.443	7142.88
936.751	7107.4
937.059	7116.89
937.367	7021.75
937.674	7066.49
937.982	7017.68
938.29	6948.98
938.597	6917.12
938.905	6870.57
939.213	6893.39
939.52	6812.49
939.827	6864.01
940.135	6791.47
940.442	6755.77
940.749	6688.65
941.056	6729.33
941.363	6703.34
941.67	6663.12
941.977	6615.89
942.284	6581.54
942.591	6575.89
942.898	6530.01
943.205	6538.83
943.511	6465.15
943.818	6480.3
944.125	6405.04
944.431	6362.78
944.738	6440.52
945.044	6316.46
945.35	6289.11
945.657	6233.07
945.963	6270.81
946.269	6217.25
946.575	6229
946.881	6184.71
947.187	6163.92
947.493	6086.41
947.799	6120.53
948.105	6059.29
948.41	6017.93
948.716	6053.41
949.022	5956.47
949.327	5950.37
949.633	5912.4
949.938	5909.92
950.244	5933.19
950.549	5867.66
950.854	5816.58
951.16	5809.58
951.465	5808.9
951.77	5732.97
952.075	5753.31
952.38	5746.53
952.685	5726.19
952.99	5561.22
953.294	5695.01
953.599	5598.51
953.904	5567.1
954.209	5505.86
954.513	5572.97
954.818	5494.11
955.122	5487.78
955.426	5444.39
955.731	5414.56
956.035	5420.89
956.339	5424.28
956.643	5351.06
956.948	5331.17
957.252	5348.35
957.556	5292.98
957.86	5241.01
958.163	5257.5
958.467	5245.75
958.771	5241.91
959.075	5215.47
959.378	5153.55
959.682	5151.74
959.985	5150.84
960.289	5084.17
960.592	5101.57
960.896	5058.86
961.199	5026.32
961.502	5018.19
961.805	5015.25
962.108	4937.74
962.411	4969.6
962.714	4855.71
963.017	4919.21
963.32	4877.63
963.623	4860.45
963.926	4838.98
964.228	4834.24
964.531	4811.64
964.833	4791.53
965.136	4769.61
965.438	4758.08
965.741	4682.15
966.043	4715.6
966.345	4643.96
966.648	4683.05
966.95	4656.61
967.252	4621.14
967.554	4592.89
967.856	4613.9
968.158	4559.44
968.46	4584.3
968.761	4499.1
969.063	4528.71
969.365	4493.23
969.666	4505.88
969.968	4446.45
970.269	4403.97
970.571	4415.72
970.872	4406
971.174	4334.59
971.475	4393.34
971.776	4296.62
972.077	4265.21
972.378	4277.64
972.679	4304.53
972.98	4226.8
973.281	4224.31
973.582	4209.17
973.883	4241.26
974.183	4161.71
974.484	4152.67
974.785	4104.31
975.085	4166.91
975.386	4085.1
975.686	4081.94
975.986	4073.58
976.287	4053.01
976.587	3975.73
976.887	3987.25
977.187	4014.82
977.487	3967.37
977.787	3929.85
978.087	3961.49
978.387	3900.25
978.687	3916.3
978.987	3883.98
979.286	3856.64
979.586	3844.21
979.885	3823.87
980.185	3819.8
980.484	3794.49
980.784	3766.69
981.083	3771.44
981.382	3768.73
981.682	3733.7
981.981	3740.03
982.28	3695.74
982.579	3642.86
982.878	3680.6
983.177	3667.49
983.475	3631.33
983.774	3611.67
984.073	3597.21
984.372	3600.15
984.67	3578
984.969	3562.86
985.267	3558.11
985.566	3529.41
985.864	3491
986.162	3511.79
986.461	3478.11
986.759	3425.46
987.057	3453.26
987.355	3425.46
987.653	3395.41
987.951	3408.96
988.249	3385.01
988.547	3352.69
988.844	3326.48
989.142	3328.06
989.44	3314.73
989.737	3286.26
990.035	3287.61
990.332	3279.48
990.63	3273.6
990.927	3275.63
991.224	3236.09
991.521	3201.96
991.819	3211
992.116	3199.03
992.413	3159.48
992.71	3136.2
993.006	3124.45
993.303	3143.66
993.6	3075.19
993.897	3081.06
994.193	3046.26
994.49	3078.13
994.787	3007.39
995.083	2989.31
995.379	3008.3
995.676	3020.27
995.972	3004
996.268	2964.68
996.565	2940.05
996.861	2940.28
997.157	2886.49
997.453	2934.63
997.749	2910.45
998.044	2857.79
998.34	2873.38
998.636	2873.38
998.932	2814.18
999.227	2807.62
999.523	2837.23
999.818	2797.91
1000.114	2764.01
1000.409	2783.9
1000.704	2791.81
1001	2709.1
1001.295	2741.41
1001.59	2719.72
1001.885	2672.94
1002.18	2672.49
1002.475	2651.7
1002.77	2636.78
1003.065	2655.76
1003.359	2585.93
1003.654	2613.05
1003.949	2608.53
1004.243	2601.3
1004.538	2553.62
1004.832	2567.18
1005.127	2502.77
1005.421	2473.62
1005.715	2507.07
1006.009	2512.72
1006.304	2462.55
1006.598	2449.22
1006.892	2435.43
1007.186	2417.13
1007.48	2427.07
1007.773	2399.73
1008.067	2357.47
1008.361	2356.79
1008.655	2320.86
1008.948	2364.7
1009.242	2353.62
1009.535	2312.5
1009.829	2259.39
1010.122	2279.73
1010.415	2288.77
1010.708	2256.9
1011.001	2245.83
1011.295	2239.96
1011.588	2231.14
1011.881	2216.23
1012.173	2204.48
1012.466	2178.26
1012.759	2189.34
1013.052	2202.67
1013.344	2152.5
1013.637	2141.43
1013.93	2098.26
1014.222	2096.91
1014.514	2119.05
1014.807	2105.72
1015.099	2074.99
1015.391	2044.93
1015.683	2044.03
1015.976	2041.54
1016.268	2054.88
1016.56	1980.53
1016.851	1993.63
1017.143	1994.09
1017.435	1976.23
1017.727	1939.17
1018.018	1933.75
1018.31	1944.82
1018.602	1922.68
1018.893	1903.01
1019.185	1884.26
1019.476	1867.31
1019.767	1874.54
1020.058	1870.02
1020.35	1834.77
1020.641	1835.22
1020.932	1844.03
1021.223	1827.76
1021.514	1801.55
1021.804	1773.3
1022.095	1718.39
1022.386	1748.44
1022.677	1741.66
1022.967	1726.52
1023.258	1742.12
1023.548	1722
1023.839	1722.91
1024.129	1703.92
1024.419	1683.13
1024.709	1668.22
1025	1638.39
1025.29	1660.76
1025.58	1651.27
1025.87	1592.74
1026.16	1605.17
1026.449	1612.18
1026.739	1613.76
1027.029	1609.69
1027.319	1584.15
1027.608	1599.07
1027.898	1571.95
1028.187	1538.05
1028.477	1528.79
1028.766	1517.71
1029.055	1508
1029.344	1493.99
1029.634	1519.75
1029.923	1475.23
1030.212	1464.16
1030.501	1457.6
1030.79	1422.58
1031.078	1456.02
1031.367	1406.76
1031.656	1416.47
1031.945	1412.86
1032.233	1386.87
1032.522	1383.25
1032.81	1388.45
1033.099	1395.23
1033.387	1386.42
1033.675	1365.18
1033.963	1325.18
1034.251	1333.31
1034.54	1331.73
1034.828	1350.49
1035.116	1296.93
1035.403	1312.07
1035.691	1295.12
1035.979	1288.12
1036.267	1282.24
1036.554	1282.01
1036.842	1265.97
1037.129	1250.6
1037.417	1249.47
1037.704	1265.52
1037.992	1213.09
1038.279	1197.27
1038.566	1210.6
1038.853	1210.6
1039.14	1210.6
