Data from 383_FLMS001491_001.txt Node
Date: Thu Apr 19 15:42:26 BST 2018
User: hsy
Spectrometer: FLMS00149
Trigger mode: 0
Integration Time (sec): 1.000000E-2
Scans to average: 10
Electric dark correction enabled: true
Nonlinearity correction enabled: false
Boxcar width: 0
XAxis mode: Wavelengths
Number of Pixels in Spectrum: 2048
>>>>>Begin Spectral Data<<<<<
341.393	-30.76
341.776	-30.76
342.16	-30.76
342.543	-61.27
342.927	-82.29
343.31	-82.51
343.693	-116.41
344.077	-56.3
344.46	-52
344.843	-63.53
345.226	-53.13
345.61	-31.67
345.993	-25.79
346.376	-4.55
346.759	4.72
347.142	36.81
347.525	62.57
347.908	58.73
348.291	89.46
348.674	113.87
349.057	119.74
349.44	130.82
349.823	126.52
350.206	172.4
350.588	217.14
350.971	235.45
351.354	253.07
351.737	261.21
352.119	265.5
352.502	295.56
352.884	304.6
353.267	317.48
353.65	332.84
354.032	326.06
354.414	345.27
354.797	343.01
355.179	347.08
355.562	363.8
355.944	366.52
356.326	350.25
356.709	369.68
357.091	350.25
357.473	360.87
357.855	349.34
358.238	362.67
358.62	395.89
359.002	373.07
359.384	384.82
359.766	381.43
360.148	387.76
360.53	381.43
360.912	378.49
361.294	358.61
361.676	362.22
362.057	379.62
362.439	377.81
362.821	358.83
363.203	376.91
363.584	353.41
363.966	369.91
364.348	362.67
364.729	369
365.111	379.4
365.493	357.25
365.874	390.47
366.256	346.4
366.637	373.3
367.019	338.04
367.4	365.16
367.781	361.77
368.163	361.77
368.544	345.27
368.925	341.66
369.306	353.86
369.688	343.92
370.069	380.98
370.45	357.48
370.831	368.32
371.212	369.68
371.593	357.7
371.974	362.67
372.355	379.62
372.736	388.21
373.117	366.06
373.498	362.22
373.879	358.15
374.26	371.94
374.641	363.58
375.021	339.85
375.402	367.65
375.783	373.3
376.163	405.38
376.544	372.39
376.925	402.9
377.305	391.83
377.686	389.11
378.066	411.03
378.447	387.08
378.827	397.48
379.208	373.52
379.588	383.01
379.968	390.47
380.349	419.85
380.729	399.28
381.109	416.23
381.489	396.8
381.87	406.29
382.25	404.93
382.63	415.1
383.01	425.95
383.39	438.38
383.77	410.81
384.15	430.69
384.53	427.76
384.91	434.76
385.29	423.92
385.67	416.46
386.049	431.82
386.429	429.11
386.809	441.99
387.189	463.24
387.568	434.54
387.948	460.3
388.328	443.35
388.707	464.14
389.087	464.37
389.466	456.68
389.846	463.91
390.225	468.21
390.605	482.44
390.984	484.93
391.363	486.29
391.743	485.61
392.122	486.74
392.501	474.99
392.881	512.05
393.26	464.82
393.639	473.86
394.018	519.51
394.397	507.08
394.776	494.87
395.155	489.9
395.534	512.05
395.913	507.76
396.292	521.54
396.671	524.93
397.05	505.72
397.429	504.14
397.808	529.68
398.186	533.29
398.565	502.11
398.944	535.78
399.323	534.19
399.701	543.46
400.08	549.79
400.458	545.27
400.837	554.76
401.215	535.55
401.594	567.19
401.972	579.84
402.351	562.22
402.729	569
403.107	580.3
403.486	583.01
403.864	616.23
404.242	585.72
404.62	596.79
404.999	589.79
405.377	591.14
405.755	601.99
406.133	613.74
406.511	603.12
406.889	592.5
407.267	625.94
407.645	626.17
408.023	627.3
408.401	618.03
408.779	634.08
409.156	677.24
409.534	651.71
409.912	648.09
410.29	674.76
410.667	671.82
411.045	680.41
411.422	699.39
411.8	685.83
412.178	702.33
412.555	703
412.933	714.98
413.31	726.73
413.687	735.55
414.065	735.32
414.442	759.05
414.819	746.62
415.197	770.35
415.574	746.84
415.951	768.99
416.328	786.17
416.705	799.95
417.082	760.63
417.46	799.05
417.837	783.68
418.214	806.5
418.591	811.7
418.967	796.33
419.344	792.27
419.721	829.78
420.098	808.31
420.475	856.9
420.852	830.91
421.228	849.67
421.605	862.1
421.982	876.11
422.358	844.92
422.735	861.87
423.111	840.18
423.488	866.39
423.864	885.15
424.241	898.03
424.617	880.17
424.994	896.22
425.37	920.63
425.746	936.9
426.123	933.51
426.499	928.76
426.875	947.07
427.251	953.84
427.627	970.34
428.003	986.84
428.379	958.59
428.756	991.36
429.132	991.58
429.507	1011.47
429.883	988.87
430.259	1037.46
430.635	1043.56
431.011	1016.44
431.387	1071.13
431.763	1071.13
432.138	1091.02
432.514	1105.71
432.89	1092.37
433.265	1117.68
433.641	1118.36
434.016	1140.73
434.392	1185.93
434.767	1194.74
435.143	1176.44
435.518	1170.79
435.894	1212.37
436.269	1221.41
436.644	1226.15
437.02	1241.97
437.395	1243.33
437.77	1258.02
438.145	1250.56
438.52	1267.28
438.895	1312.71
439.271	1280.16
439.646	1306.15
440.021	1331.69
440.395	1319.03
440.77	1314.29
441.145	1337.56
441.52	1329.88
441.895	1361.52
442.27	1345.25
442.645	1371.91
443.019	1369.2
443.394	1380.5
443.769	1418.69
444.143	1401.29
444.518	1395.64
444.892	1440.84
445.267	1415.08
445.641	1440.84
446.016	1448.52
446.39	1460.05
446.764	1477.67
447.139	1446.94
447.513	1487.84
447.887	1509.31
448.262	1469.09
448.636	1479.03
449.01	1521.51
449.384	1528.29
449.758	1516.54
450.132	1572.81
450.506	1554.96
450.88	1586.14
451.254	1580.72
451.628	1573.49
452.002	1603.09
452.376	1620.49
452.75	1662.3
453.123	1648.06
453.497	1686.71
453.871	1723.09
454.244	1738.46
454.618	1723.77
454.992	1776.65
455.365	1783.88
455.739	1826.36
456.112	1800.38
456.486	1836.53
456.859	1845.8
457.232	1916.08
457.606	1899.36
457.979	1952.69
458.352	1955.17
458.725	1980.71
459.099	2002.4
459.472	2013.93
459.845	2025
460.218	2034.72
460.591	2087.37
460.964	2115.62
461.337	2148.16
461.71	2197.88
462.083	2220.93
462.456	2196.3
462.829	2215.73
463.201	2262.51
463.574	2296.41
463.947	2317.42
464.32	2315.39
464.692	2339.35
465.065	2388.38
465.438	2410.53
465.81	2408.27
466.183	2445.56
466.555	2499.34
466.928	2532.11
467.3	2507.7
467.672	2539.79
468.045	2606.23
468.417	2632.22
468.789	2632.22
469.161	2686.45
469.534	2714.7
469.906	2756.06
470.278	2767.13
470.65	2807.13
471.022	2859.56
471.394	2929.39
471.766	2930.97
472.138	2938.88
472.51	3011.19
472.882	3065.88
473.253	3076.28
473.625	3151.98
473.997	3179.1
474.369	3238.3
474.74	3272.2
475.112	3327.12
475.484	3365.31
475.855	3461.12
476.227	3469.94
476.598	3577.28
476.97	3639.2
477.341	3669.03
477.713	3716.48
478.084	3769.14
478.455	3863.82
478.827	3891.85
479.198	4007.78
479.569	4081.45
479.94	4116.25
480.311	4189.24
480.682	4229.69
481.053	4370.03
481.424	4429.46
481.795	4493.41
482.166	4565.28
482.537	4619.96
482.908	4771.15
483.279	4782.22
483.65	4903.57
484.021	4994.42
484.391	5085.71
484.762	5130.91
485.133	5230.34
485.503	5348.08
485.874	5499.26
486.244	5585.81
486.615	5630.33
486.985	5785.36
487.356	5896.09
487.726	5992.58
488.097	6126.82
488.467	6168.4
488.837	6306.02
489.207	6457.66
489.578	6622.62
489.948	6695.39
490.318	6807.7
490.688	6863.07
491.058	7063.29
491.428	7162.5
491.798	7296.5
492.168	7440.91
492.538	7565.42
492.908	7708.92
493.278	7886.54
493.648	7993.43
494.017	8107.56
494.387	8325.63
494.757	8369.02
495.126	8562.68
495.496	8658.28
495.866	8911.38
496.235	9017.14
496.605	9227.3
496.974	9259.84
497.344	9505.03
497.713	9674.07
498.082	9783.22
498.452	9976.66
498.821	10161.74
499.19	10218.23
499.559	10386.37
499.928	10660.26
500.298	10716.53
500.667	10953.81
501.036	11143.63
501.405	11219.79
501.774	11453.46
502.143	11606.67
502.512	11830.17
502.88	12026.55
503.249	12168.92
503.618	12398.97
503.987	12556.25
504.356	12710.15
504.724	12879.41
505.093	13085.5
505.462	13228.55
505.83	13480.3
506.199	13692.04
506.567	13951.7
506.936	14088.87
507.304	14335.41
507.672	14481.85
508.041	14718.45
508.409	14903.99
508.777	15157.09
509.145	15450.86
509.514	15495.16
509.882	15701.71
510.25	15891.08
510.618	16125.2
510.986	16191.86
511.354	16492.87
511.722	16764.73
512.09	16987.32
512.458	16962.24
512.826	17329.46
513.193	17434.32
513.561	17585.27
513.929	17744.59
514.297	18011.48
514.664	18099.61
515.032	18427.96
515.4	18540.5
515.767	18834.96
516.135	18890.55
516.502	18856.2
516.869	19351.1
517.237	19453.02
517.604	19578.89
517.972	19772.79
518.339	19971.2
518.706	20180.91
519.073	20303.17
519.44	20398.53
519.808	20732.31
520.175	20680.78
520.542	21010.04
520.909	21248.68
521.276	21393.08
521.643	21584.94
522.009	21701.1
522.376	21908.32
522.743	22198.48
523.11	22344.02
523.477	22681.41
523.843	22730.9
524.21	23086.82
524.577	23257.67
524.943	23314.84
525.31	23542.86
525.676	23853.13
526.043	23995.5
526.409	24102.39
526.776	24440.69
527.142	24456.28
527.508	24703.5
527.874	24958.64
528.241	25058.75
528.607	25089.71
528.973	25348.91
529.339	25514.56
529.705	25766.75
530.071	25882.91
530.437	26085.84
530.803	26204.48
531.169	26391.14
531.535	26596.79
531.901	26601.98
532.267	26690.8
532.632	26881.75
532.998	26902.99
533.364	27230.67
533.73	27310.44
534.095	27430.89
534.461	27537.55
534.826	27673.14
535.192	27704.1
535.557	27803.31
535.923	27994.04
536.288	28072.23
536.653	28165.56
537.019	28203.52
537.384	28218.89
537.749	28411.2
538.114	28480.13
538.479	28375.04
538.845	28570.07
539.21	28554.25
539.575	28658.2
539.94	28734.58
540.305	28958.08
540.67	28969.61
541.034	28996.05
541.399	29063.61
541.764	29148.58
542.129	29361.69
542.494	29316.04
542.858	29506.09
543.223	29384.96
543.587	29683.03
543.952	29433.55
544.316	29497.05
544.681	29573.88
545.045	29828.79
545.41	30020.43
545.774	29890.26
546.138	29925.29
546.503	29971.16
546.867	30025.4
547.231	30134.55
547.595	30193.08
547.959	30352.85
548.324	30233.75
548.688	30263.36
549.052	30384.71
549.416	30444.82
549.779	30422
550.143	30577.02
550.507	30768.43
550.871	30671.93
551.235	30678.49
551.599	30963
551.962	30855.66
552.326	31010.91
552.689	31123.67
553.053	30964.58
553.417	31124.35
553.78	31419.94
554.143	31370.9
554.507	31532.48
554.87	31539.26
555.234	31815.41
555.597	31566.37
555.96	31648.86
556.323	31873.03
556.686	31908.29
557.05	32017.66
557.413	32188.73
557.776	32119.13
558.139	32529.29
558.502	32405.67
558.865	32469.85
559.228	32809.5
559.59	32796.4
559.953	32785.1
560.316	33102.38
560.679	33165.65
561.041	33122.94
561.404	33512.99
561.767	33506.44
562.129	33487.68
562.492	33751.17
562.854	33776.94
563.217	33839.08
563.579	34011.05
563.941	34106.65
564.304	34418.05
564.666	34512.51
565.028	34557.48
565.39	34551.38
565.753	34809
566.115	34778.49
566.477	35079.5
566.839	35140.06
567.201	35389.55
567.563	35423.67
567.925	35651.46
568.287	35744.79
568.648	35644.91
569.01	36036.09
569.372	36183.43
569.734	36086.93
570.095	36555.17
570.457	36373.03
570.819	36519.24
571.18	36524.21
571.542	36822.73
571.903	36574.38
572.265	36916.29
572.626	37084.65
572.987	37076.96
573.349	37128.71
573.71	37413.9
574.071	37545.43
574.432	37592.2
574.794	37796.49
575.155	37890.73
575.516	37743.61
575.877	37860.22
576.238	37887.56
576.599	38041.91
576.96	38104.51
577.32	38086.65
577.681	38160.1
578.042	38384.05
578.403	38147.22
578.763	38219.98
579.124	38355.12
579.485	38493.65
579.845	38525.29
580.206	38585.17
580.566	38454.1
580.927	38429.47
581.287	38573.65
581.648	38483.03
582.008	38638.05
582.368	38627.66
582.728	38652.51
583.089	38643.7
583.449	38625.62
583.809	38625.62
584.169	38710.59
584.529	38487.32
584.889	38881.21
585.249	38656.13
585.609	38386.76
585.969	38686.41
586.329	38420.88
586.688	38590.14
587.048	38577.26
587.408	38582.91
587.768	38475.34
588.127	38551.05
588.487	38423.82
588.846	38650.48
589.206	38384.95
589.565	38346.31
589.925	38597.83
590.284	38553.08
590.643	38448.9
591.003	38585.62
591.362	38675.11
591.721	38522.35
592.08	38528
592.44	38957.82
592.799	38568.45
593.158	38568.45
593.517	38342.01
593.876	38456.14
594.235	38418.4
594.593	38498.17
594.952	38537.26
595.311	38281.45
595.67	38504.5
596.029	38648.22
596.387	38683.02
596.746	38609.58
597.104	38534.55
597.463	38438.28
597.822	38649.35
598.18	38469.69
598.538	38460.66
598.897	38772.06
599.255	38296.14
599.613	38925.95
599.972	38472.63
600.33	38667.43
600.688	38699.75
601.046	38598.73
601.404	38976.57
601.762	38755.11
602.12	38889.57
602.478	38912.85
602.836	38909.68
603.194	38742.68
603.552	38773.42
603.91	38739.74
604.268	38902.45
604.625	38853.19
604.983	39177.7
605.341	38859.97
605.698	39209.56
606.056	39268.09
606.413	39061.54
606.771	39387.41
607.128	39198.72
607.485	39151.48
607.843	39138.38
608.2	39325.49
608.557	39403.23
608.914	39486.62
609.272	39492.49
609.629	39701.07
609.986	39820.85
610.343	39785.37
610.7	39927.74
611.057	39773.62
611.414	39772.03
611.771	40017.22
612.127	40003.44
612.484	39937.9
612.841	40174.06
613.198	40159.59
613.554	40069.43
613.911	40449.76
614.267	40439.81
614.624	40371.79
614.98	40344.22
615.337	40555.06
615.693	40590.32
616.05	40707.6
616.406	40715.06
616.762	40688.62
617.118	40723.87
617.475	40819.01
617.831	40883.87
618.187	40928.39
618.543	40966.58
618.899	41074.15
619.255	41123.86
619.611	41058.55
619.967	41168.61
620.323	41393.01
620.678	41155.73
621.034	41057.42
621.39	41044.99
621.746	41203.18
622.101	41581.03
622.457	41299.9
622.812	41412.67
623.168	41428.26
623.523	41437.53
623.879	41488.82
624.234	41355.04
624.589	41565.88
624.945	41511.42
625.3	41440.01
625.655	41436.85
626.01	41326.34
626.365	41448.37
626.72	41440.92
627.075	41295.16
627.43	41386.45
627.785	41445.44
628.14	41368.83
628.495	41485.21
628.85	41468.49
629.205	41396.17
629.559	41561.14
629.914	41416.28
630.269	41413.35
630.623	41254.93
630.978	41176.97
631.332	41482.72
631.687	41320.47
632.041	41153.01
632.396	41197.76
632.75	41100.13
633.104	41146.69
633.459	40918.22
633.813	40996.41
634.167	40841.84
634.521	40940.14
634.875	40973.58
635.229	40894.49
635.583	40600.26
635.937	40680.26
636.291	40495.18
636.645	40556.42
636.999	40387.61
637.352	40565.01
637.706	40316.65
638.06	40554.16
638.413	40217.22
638.767	40042.31
639.121	40354.16
639.474	40238.24
639.828	40143.77
640.181	40210.44
640.534	40279.14
640.888	40215.19
641.241	39843.9
641.594	39852.48
641.947	40101.97
642.301	39875.99
642.654	39889.09
643.007	39644.13
643.36	39859.04
643.713	39859.04
644.066	40110.1
644.419	39533.62
644.771	39241.43
645.124	38782.23
645.477	38795.79
645.83	38700.88
646.182	38680.54
646.535	38564.16
646.888	38878.05
647.24	38581.1
647.593	38821.55
647.945	38595.79
648.298	38472.63
648.65	38479.64
649.002	38039.42
649.355	38122.13
649.707	37850.73
650.059	37901.57
650.411	38560.99
650.763	38679.86
651.115	39237.36
651.467	39118.04
651.819	39078.04
652.171	39069.9
652.523	39054.31
652.875	39023.8
653.227	38957.59
653.578	39152.61
653.93	38926.63
654.282	38934.99
654.633	38862.45
654.985	38849.35
655.337	38946.29
655.688	38878.5
656.039	38879.63
656.391	38561.67
656.742	38570.03
657.094	38799.86
657.445	38804.83
657.796	38894.54
658.147	38707.43
658.498	38847.31
658.849	38939.96
659.2	38702.23
659.551	38789.23
659.902	38938.16
660.253	38639.18
660.604	38806.41
660.955	38604.61
661.306	38849.12
661.656	38671.27
662.007	38811.38
662.358	38771.16
662.708	38798.27
663.059	38810.93
663.409	38582.46
663.76	38864.26
664.11	38827.65
664.461	38950.81
664.811	38823.36
665.161	38899.06
665.511	38812.74
665.862	38783.58
666.212	38993.97
666.562	38887.08
666.912	38734.77
667.262	38673.76
667.612	38737.71
667.962	38797.6
668.312	38679.41
668.662	38939.29
669.011	38865.39
669.361	38786.97
669.711	38695.9
670.06	38710.37
670.41	38715.56
670.76	38611.16
671.109	38831.49
671.459	38624.72
671.808	38785.62
672.157	38796.01
672.507	38582.46
672.856	38500.88
673.205	38584.72
673.554	38716.92
673.904	38533.42
674.253	38842.34
674.602	38597.15
674.951	38063.6
675.3	37834.46
675.649	38484.61
675.998	38582.91
676.346	38497.26
676.695	38527.09
677.044	38291.17
677.393	38412.97
677.741	38383.37
678.09	38357.16
678.438	38277.38
678.787	38358.51
679.135	38386.08
679.484	38095.92
679.832	38196.48
680.181	38055.02
680.529	38272.19
680.877	38006.2
681.225	37968.69
681.573	38198.52
681.922	38075.58
682.27	37868.58
682.618	37940.67
682.966	37718.08
683.314	37645.31
683.661	37599.66
684.009	37476.95
684.357	37431.08
684.705	37353.57
685.053	37303.85
685.4	37285.55
685.748	37182.04
686.095	37159.9
686.443	36919
686.79	36891.88
687.138	36968.49
687.485	37034.93
687.832	36717.2
688.18	36872
688.527	36650.99
688.874	36468.39
689.221	36513.59
689.568	36244.89
689.915	36173.03
690.262	36190.66
690.609	36091
690.956	35996.99
691.303	35898.24
691.65	35741.86
691.997	35662.54
692.344	35485.14
692.69	35467.29
693.037	35393.62
693.383	35006.06
693.73	35204.92
694.077	35041.08
694.423	34946.17
694.769	34719.96
695.116	34590.7
695.462	34514.77
695.808	34516.58
696.155	34360.65
696.501	34221.9
696.847	34213.54
697.193	34007.67
697.539	34064.61
697.885	33775.35
698.231	33529.94
698.577	33615.36
698.923	33600.22
699.269	33367.68
699.614	33128.37
699.96	33048.37
700.306	33025.09
700.651	32720.24
700.997	32778.09
701.342	32650.86
701.688	32600.02
702.033	32459.23
702.379	32435.5
702.724	32346.24
703.069	32197.54
703.415	31865.57
703.76	31919.81
704.105	31904.44
704.45	31806.59
704.795	31748.97
705.14	31610.67
705.485	31600.95
705.83	31419.48
706.175	31500.39
706.52	31302.2
706.865	31184.01
707.209	31085.26
707.554	31016.33
707.899	30967.52
708.243	30890.68
708.588	30844.13
708.932	30581.09
709.277	30708.99
709.621	30613.86
709.966	30425.39
710.31	30460.64
710.654	30254.32
710.998	30167.99
711.342	30222
711.687	30078.73
712.031	30027.66
712.375	29976.81
712.719	29952.86
713.063	29859.3
713.407	29983.59
713.75	29834.89
714.094	29735.01
714.438	29609.81
714.782	29596.03
715.125	29452.76
715.469	29667.21
715.812	29426.99
716.156	29364.85
716.499	29434
716.843	29238.75
717.186	29146.32
717.53	29318.52
717.873	29234.46
718.216	29306.32
718.559	29136.83
718.902	29010.51
719.246	28828.14
719.589	28895.48
719.932	28911.75
720.275	28889.16
720.617	28790.18
720.96	28689.16
721.303	28831.08
721.646	28799.89
721.989	28654.36
722.331	28751.31
722.674	28576.85
723.016	28640.35
723.359	28516.06
723.701	28500.47
724.044	28391.32
724.386	28235.61
724.729	28582.72
725.071	28398.32
725.413	28357.19
725.755	28327.14
726.097	28224.09
726.439	28143.41
726.782	28211.43
727.124	28292.79
727.465	28141.6
727.807	28063.64
728.149	28212.79
728.491	28062.96
728.833	28119.91
729.175	28033.13
729.516	27883.31
729.858	28056.18
730.199	28111.32
730.541	28077.2
730.882	27838.79
731.224	28079.01
731.565	27848.96
731.906	27976.19
732.248	27983.19
732.589	27967.6
732.93	27898.67
733.271	27781.84
733.612	27895.28
733.953	27940.25
734.294	27891.89
734.635	27900.93
734.976	27975.96
735.317	27954.26
735.658	27827.71
735.999	27915.85
736.339	27872.23
736.68	27956.3
737.021	27773.25
737.361	27832.23
737.702	27990.87
738.042	27934.83
738.383	27968.28
738.723	27948.62
739.063	28017.54
739.404	27991.33
739.744	28093.47
740.084	27926.47
740.424	28067.93
740.764	28041.27
741.104	28290.98
741.444	28174.82
741.784	28063.87
742.124	28241.49
742.464	28179.8
742.804	28124.66
743.143	28292.79
743.483	28364.65
743.823	28207.59
744.162	28257.76
744.502	28448.49
744.841	28344.54
745.181	28535.72
745.52	28401.48
745.86	28566.68
746.199	28353.12
746.538	28601.93
746.877	28802.6
747.216	28816.39
747.556	28741.36
747.895	28818.2
748.234	28889.16
748.573	28933.45
748.911	28849.38
749.25	29038.98
749.589	28953.33
749.928	29138.41
750.267	29112.88
750.605	29080.79
750.944	29262.71
751.283	29368.24
751.621	29485.75
751.96	29332.99
752.298	29414.57
752.636	29487.78
752.975	29507.22
753.313	29604.62
753.651	29792.41
753.989	29692.75
754.327	29687.1
754.666	29594.45
755.004	29759.64
755.342	29962.12
755.679	29988.11
756.017	29863.82
756.355	30087.99
756.693	30002.8
757.031	30133.19
757.368	29987.43
757.706	30106.3
758.044	30054.1
758.381	30259.74
758.719	30158.5
759.056	30338.38
759.394	30189.46
759.731	30186.75
760.068	30138.39
760.405	30242.79
760.743	30287.08
761.08	30369.57
761.417	30283.02
761.754	30366.63
762.091	30339.74
762.428	30294.54
762.765	30226.97
763.102	30342.45
763.438	30198.5
763.775	30146.07
764.112	30123.47
764.449	30207.77
764.785	30163.25
765.122	30182.91
765.458	30092.06
765.795	30108.11
766.131	30183.13
766.467	30047.32
766.804	29856.36
767.14	29858.62
767.476	29943.59
767.812	29799.64
768.148	29877.83
768.485	29814.33
768.821	29701.11
769.157	29681.68
769.492	29736.82
769.828	29621.79
770.164	29468.35
770.5	29311.52
770.836	29498.41
771.171	29448.01
771.507	29262.03
771.842	29169.83
772.178	29151.07
772.513	29099.32
772.849	29147.45
773.184	28932.77
773.519	28968.25
773.855	28768.25
774.19	28806.67
774.525	28721.25
774.86	28594.93
775.195	28649.61
775.53	28435.83
775.865	28324.88
776.2	28178.89
776.535	28126.01
776.87	28073.81
777.205	27983.87
777.539	27823.19
777.874	27854.38
778.209	27653.26
778.543	27731.45
778.878	27436.09
779.212	27434.05
779.547	27403.32
779.881	27415.97
780.215	27138.24
780.55	27272.7
780.884	26960.84
781.218	26890.34
781.552	27058.92
781.886	26886.5
782.22	26664.58
782.554	26618.03
782.888	26390.24
783.222	26298.49
783.556	26212.16
783.889	26186.4
784.223	26050.36
784.557	25988.89
784.89	26132.39
785.224	25900.31
785.557	25734.44
785.891	25663.25
786.224	25667.09
786.558	25572.41
786.891	25361.79
787.224	25303.71
787.557	25120.67
787.891	25246.99
788.224	25052.65
788.557	24978.75
788.89	24976.72
789.223	25036.15
789.556	24830.51
789.888	24768.59
790.221	24544.64
790.554	24451.53
790.887	24495.82
791.219	24379.22
791.552	24260.35
791.884	24198.43
792.217	24194.59
792.549	24077.76
792.882	23916.41
793.214	23933.58
793.546	23924.99
793.879	23666.69
794.211	23541.27
794.543	23609.07
794.875	23467.83
795.207	23462.18
795.539	23472.8
795.871	23545.34
796.203	23365.01
796.535	23109.87
796.867	23187.38
797.198	23046.6
797.53	23035.3
797.862	22823.78
798.193	22915.98
798.525	22795.98
798.856	22852.93
799.188	22543.79
799.519	22550.79
799.85	22416.33
800.182	22449.32
800.513	22344.24
800.844	22128.43
801.175	22383.11
801.506	22233.74
801.837	22048.43
802.168	22097.24
802.499	22156.9
802.83	21969.11
803.161	21789.68
803.491	21787.2
803.822	21912.84
804.153	21765.5
804.483	21615.22
804.814	21456.81
805.145	21520.31
805.475	21452.74
805.805	21343.59
806.136	21422.69
806.466	21313.76
806.796	21328.22
807.126	21109.25
807.457	21135.46
807.787	21055.46
808.117	21049.59
808.447	21004.17
808.777	21064.28
809.107	20851.17
809.436	20746.09
809.766	20642.37
810.096	20935.92
810.426	20572.99
810.755	20739.54
811.085	20575.7
811.414	20599.2
811.744	20492.99
812.073	20420.45
812.403	20340.23
812.732	20182.94
813.061	20406.67
813.39	20203.96
813.719	20114.7
814.049	20316.95
814.378	20140.01
814.707	20008.94
815.036	20020.69
815.365	19907.02
815.693	19853.46
816.022	19828.15
816.351	19786.34
816.68	19741.15
817.008	19737.31
817.337	19603.07
817.665	19609.63
817.994	19596.97
818.322	19686.91
818.651	19594.26
818.979	19479.23
819.307	19539.8
819.636	19417.09
819.964	19354.72
820.292	19315.17
820.62	19356.75
820.948	19339.35
821.276	19425
821.604	19283.08
821.932	19463.19
822.259	19350.88
822.587	19350.88
822.915	19269.3
823.243	19347.49
823.57	19319.46
823.898	19348.16
824.225	19332.12
824.553	19349.52
824.88	19353.81
825.207	19384.77
825.535	19260.03
825.862	19440.59
826.189	19287.15
826.516	19420.03
826.843	19337.09
827.17	19407.82
827.497	19337.54
827.824	19324.66
828.151	19484.43
828.478	19241.27
828.805	19474.49
829.131	19412.57
829.458	19347.03
829.785	19280.59
830.111	19328.05
830.438	19400.14
830.764	19272.23
831.09	19335.96
831.417	19162.63
831.743	19392.46
832.069	19246.92
832.395	19269.97
832.722	19276.98
833.048	19228.17
833.374	19276.98
833.7	19218.22
834.026	19242.63
834.351	19087.15
834.677	19282.18
835.003	19168.73
835.329	19169.64
835.654	19168.06
835.98	19064.78
836.306	19151.33
836.631	19045.57
836.956	19215.51
837.282	19229.07
837.607	19049.87
837.932	18982.07
838.258	19039.02
838.583	18973.03
838.908	18947.5
839.233	19068.62
839.558	18844.22
839.883	18915.63
840.208	18853.26
840.533	18847.84
840.858	18797.9
841.182	18745.02
841.507	18787.5
841.832	18756.54
842.156	18634.96
842.481	18676.54
842.805	18458.24
843.13	18526.72
843.454	18509.77
843.778	18533.04
844.103	18410.34
844.427	18367.62
844.751	18403.1
845.075	18380.96
845.399	18224.58
845.723	18210.34
846.047	18253.96
846.371	18060.06
846.695	18121.3
847.019	18051.47
847.343	17859.39
847.666	17833.4
847.99	17734.65
848.313	17669.11
848.637	17620.75
848.96	17598.61
849.284	17558.38
849.607	17451.72
849.931	17376.01
850.254	17324.26
850.577	17176.7
850.9	16943.26
851.223	17119.07
851.546	16959.07
851.869	16877.72
852.192	17040.65
852.515	16785.52
852.838	16778.74
853.161	16610.38
853.483	16640.66
853.806	16606.77
854.129	16552.53
854.451	16513.66
854.774	16347.79
855.096	16299.43
855.419	16273.22
855.741	16250.39
856.063	16215.82
856.385	16022.38
856.708	16070.74
857.03	16019.89
857.352	15992.55
857.674	15928.59
857.996	15917.29
858.318	15809.05
858.64	15887.92
858.961	15778.31
859.283	15668.71
859.605	15659.45
859.926	15658.09
860.248	15634.14
860.57	15518.66
860.891	15568.38
861.212	15457.42
861.534	15452.45
861.855	15363.86
862.176	15448.38
862.498	15345.33
862.819	15343.3
863.14	15212
863.461	15198.44
863.782	15227.59
864.103	15150.76
864.424	15130.65
864.745	15134.49
865.065	15072.8
865.386	15039.8
865.707	15021.27
866.027	15054.04
866.348	14961.39
866.668	14937.43
866.989	14906.92
867.309	14805.46
867.63	14777.89
867.95	14874.16
868.27	14817.44
868.59	14869.64
868.91	14740.83
869.23	14793.93
869.55	14606.37
869.87	14735.86
870.19	14690.88
870.51	14620.83
870.83	14503.77
871.15	14597.1
871.469	14501.06
871.789	14496.09
872.109	14559.14
872.428	14445.92
872.748	14469.65
873.067	14471.46
873.386	14468.74
873.706	14452.47
874.025	14353.94
874.344	14304.45
874.663	14416.09
874.982	14350.33
875.301	14334.06
875.62	14280.5
875.939	14186.94
876.258	14274.62
876.577	14174.51
876.896	14190.11
877.214	14105.59
877.533	14172.93
877.852	14087.28
878.17	14086.38
878.489	14072.14
878.807	14002.54
879.125	13982.65
879.444	13974.97
879.762	13917.35
880.08	14001.19
880.398	13873.51
880.716	13812.72
881.034	13859.27
881.352	13883.9
881.67	13870.79
881.988	13708.31
882.306	13677.35
882.624	13731.36
882.941	13754.64
883.259	13692.72
883.577	13627.64
883.894	13577.69
884.212	13522.55
884.529	13559.84
884.846	13458.6
885.164	13469.9
885.481	13461.99
885.798	13463.12
886.115	13340.19
886.432	13330.92
886.75	13431.93
887.067	13425.38
887.383	13275.55
887.7	13317.14
888.017	13159.63
888.334	13154.2
888.651	13139.97
888.967	13131.15
889.284	13082.34
889.6	12953.76
889.917	12951.5
890.233	12944.94
890.55	12959.18
890.866	12877.83
891.182	12874.21
891.498	12887.09
891.815	12761.22
892.131	12716.02
892.447	12717.83
892.763	12685.51
893.079	12713.54
893.395	12681.45
893.71	12608.23
894.026	12574.1
894.342	12495.46
894.657	12414.33
894.973	12414.79
895.289	12373.88
895.604	12326.65
895.92	12318.07
896.235	12216.83
896.55	12191.97
896.865	12144.74
897.181	12130.5
897.496	12127.79
897.811	12038.3
898.126	12047.56
898.441	12001.92
898.756	12017.51
899.071	11905.87
899.386	11974.35
899.7	11884.41
900.015	11828.81
900.33	11727.12
900.644	11655.94
900.959	11742.94
901.273	11637.18
901.588	11616.16
901.902	11587.01
902.216	11478.31
902.531	11513.57
902.845	11379.33
903.159	11345.66
903.473	11358.09
903.787	11179.34
904.101	11206.23
904.415	11204.87
904.729	11112
905.042	11220.02
905.356	11079.45
905.67	11059.79
905.984	11050.08
906.297	10943.19
906.611	10876.97
906.924	10924.88
907.237	10885.79
907.551	10820.93
907.864	10689.63
908.177	10723.53
908.491	10699.58
908.804	10628.17
909.117	10516.76
909.43	10468.62
909.743	10481.96
910.056	10498.23
910.368	10434.73
910.681	10382.98
910.994	10357.21
911.307	10279.25
911.619	10266.59
911.932	10241.51
912.244	10147.95
912.557	10189.08
912.869	10032.93
913.181	10097.79
913.494	10067.96
913.806	9971.46
914.118	9891.92
914.43	9900.05
914.742	9820.73
915.054	9741.86
915.366	9767.4
915.678	9767.17
915.99	9666.16
916.302	9633.84
916.613	9586.61
916.925	9638.81
917.236	9511.81
917.548	9462.55
917.859	9413.74
918.171	9449.44
918.482	9343
918.794	9308.88
919.105	9264.36
919.416	9184.36
919.727	9187.98
920.038	9189.11
920.349	9091.03
920.66	9007.87
920.971	9064.59
921.282	8944.37
921.593	8935.78
921.903	8934.2
922.214	8870.7
922.525	8901.88
922.835	8843.58
923.146	8779.4
923.456	8732.85
923.767	8706.64
924.077	8666.64
924.387	8684.49
924.697	8568.11
925.008	8584.83
925.318	8557.03
925.628	8517.94
925.938	8486.53
926.248	8508
926.558	8324.72
926.867	8392.52
927.177	8378.96
927.487	8285.86
927.796	8204.5
928.106	8222.13
928.416	8165.63
928.725	8162.47
929.034	8135.58
929.344	8147.33
929.653	8072.08
929.962	8014.9
930.271	7878.86
930.581	7863.04
930.89	7927.45
931.199	7870.73
931.508	7882.7
931.817	7820.56
932.125	7793.89
932.434	7772.65
932.743	7681.13
933.051	7680.67
933.36	7704.63
933.669	7606.33
933.977	7604.74
934.286	7570.17
934.594	7420.57
934.902	7502.83
935.21	7436.39
935.519	7419.66
935.827	7385.99
936.135	7290.63
936.443	7292.66
936.751	7241.14
937.059	7267.35
937.367	7239.1
937.674	7160.46
937.982	7139.45
938.29	7114.36
938.597	7077.3
938.905	7065.32
939.213	7008.15
939.52	6960.69
939.827	6998.21
940.135	6928.6
940.442	6875.27
940.749	6907.13
941.056	6884.31
941.363	6804.99
941.67	6822.84
941.977	6791.88
942.284	6775.61
942.591	6735.16
942.898	6705.78
943.205	6684.77
943.511	6623.98
943.818	6608.16
944.125	6579.69
944.431	6512.79
944.738	6441.16
945.044	6491.33
945.35	6490.87
945.657	6411.78
945.963	6373.36
946.269	6372.91
946.575	6346.02
946.881	6297.89
947.187	6255.4
947.493	6249.75
947.799	6272.58
948.105	6170.2
948.41	6111
948.716	6182.86
949.022	6123.43
949.327	6163.65
949.633	6068.06
949.938	6080.49
950.244	6043.88
950.549	5993.26
950.854	5982.19
951.16	5937.22
951.465	5907.16
951.77	5849.76
952.075	5859.25
952.38	5841.4
952.685	5860.83
952.99	5753.27
953.294	5809.54
953.599	5663.78
953.904	5725.7
954.209	5629.88
954.513	5657
954.818	5661.74
955.122	5629.88
955.426	5586.72
955.731	5550.11
956.035	5537.91
956.339	5514.63
956.643	5507.85
956.948	5483.44
957.252	5476.44
957.556	5404.12
957.86	5410.68
958.163	5380.62
958.467	5347.4
958.771	5336.78
959.075	5290.68
959.378	5262.66
959.682	5259.04
959.985	5257.69
960.289	5206.39
960.592	5144.47
960.896	5173.62
961.199	5145.37
961.502	5139.72
961.805	5078.03
962.108	5043.45
962.411	5087.52
962.714	5028.54
963.017	4962.55
963.32	4964.81
963.623	4975.21
963.926	4902.89
964.228	4872.16
964.531	4857.02
964.833	4890.92
965.136	4836.45
965.438	4833.74
965.741	4800.52
966.043	4760.52
966.345	4758.49
966.648	4712.84
966.95	4760.98
967.252	4720.75
967.554	4727.76
967.856	4622
968.158	4665.61
968.46	4612.73
968.761	4649.34
969.063	4616.35
969.365	4561.66
969.666	4542.9
969.968	4532.28
970.269	4509.91
970.571	4477.37
970.872	4489.57
971.174	4497.93
971.475	4424.26
971.776	4441.66
972.077	4357.82
972.378	4389.23
972.679	4397.37
972.98	4325.73
973.281	4322.8
973.582	4287.99
973.883	4254.78
974.183	4241.89
974.484	4257.03
974.785	4221.1
975.085	4178.39
975.386	4222.69
975.686	4154.21
975.986	4136.59
976.287	4148.11
976.587	4080.54
976.887	4067.21
977.187	4101.33
977.487	4041.9
977.787	4042.8
978.087	4010.26
978.387	4007.78
978.687	4005.06
978.987	3946.53
979.286	3945.86
979.586	3953.54
979.885	3896.59
980.185	3876.71
980.484	3829.25
980.784	3864.5
981.083	3830.38
981.382	3849.36
981.682	3818.18
981.981	3817.5
982.28	3730.72
982.579	3767.1
982.878	3771.85
983.177	3754.68
983.475	3719.65
983.774	3655.92
984.073	3704.73
984.372	3618.63
984.67	3657.73
984.969	3633.77
985.267	3653.21
985.566	3605.07
985.864	3567.11
986.162	3569.82
986.461	3556.04
986.759	3545.42
987.057	3514.23
987.355	3494.34
987.653	3468.36
987.951	3476.94
988.249	3462.03
988.547	3447.11
988.844	3461.12
989.142	3390.39
989.44	3402.59
989.737	3390.84
990.035	3362.37
990.332	3367.11
990.63	3302.03
990.927	3289.83
991.224	3273.33
991.521	3292.31
991.819	3263.61
992.116	3253.22
992.413	3227.46
992.71	3222.03
993.006	3188.59
993.303	3173.45
993.6	3173.45
993.897	3190.4
994.193	3129.83
994.49	3160.11
994.787	3122.6
995.083	3091.19
995.379	3046.9
995.676	3034.92
995.972	3067.91
996.268	3053.45
996.565	3008.03
996.861	2955.83
997.157	2983.85
997.453	2942.27
997.749	2913.34
998.044	2914.7
998.34	2920.35
998.636	2902.95
998.932	2909.73
999.227	2848.48
999.523	2856.62
999.818	2847.35
1000.114	2784.08
1000.409	2783.85
1000.704	2800.35
1001	2787.24
1001.295	2758.09
1001.59	2752.44
1001.885	2776.4
1002.18	2722.84
1002.475	2709.96
1002.77	2707.25
1003.065	2669.73
1003.359	2676.74
1003.654	2642.39
1003.949	2629.96
1004.243	2637.87
1004.538	2579.56
1004.832	2603.29
1005.127	2578.66
1005.421	2559.23
1005.715	2527.59
1006.009	2525.1
1006.304	2523.07
1006.598	2530.07
1006.892	2463.41
1007.186	2435.39
1007.48	2486.01
1007.773	2436.74
1008.067	2429.51
1008.361	2377.99
1008.655	2421.83
1008.948	2363.98
1009.242	2411.43
1009.535	2352.9
1009.829	2349.74
1010.122	2329.85
1010.415	2318.78
1010.708	2284.43
1011.001	2316.52
1011.295	2315.17
1011.588	2296.18
1011.881	2255.51
1012.173	2196.07
1012.466	2221.38
1012.759	2237.43
1013.052	2229.07
1013.344	2206.47
1013.637	2222.06
1013.93	2137.77
1014.222	2155.17
1014.514	2152.01
1014.807	2132.12
1015.099	2123.08
1015.391	2079.69
1015.683	2093.25
1015.976	2047.83
1016.268	2067.71
1016.56	2037.43
1016.851	2022.52
1017.143	2027.04
1017.435	2019.35
1017.727	1967.15
1018.018	1973.93
1018.31	1975.29
1018.602	1955.17
1018.893	1948.4
1019.185	1931.45
1019.476	1914.72
1019.767	1889.41
1020.058	1898.45
1020.35	1874.05
1020.641	1862.52
1020.932	1823.43
1021.223	1852.13
1021.514	1869.98
1021.804	1807.16
1022.095	1798.57
1022.386	1794.73
1022.677	1760.38
1022.967	1765.35
1023.258	1776.87
1023.548	1731.68
1023.839	1753.37
1024.129	1717.89
1024.419	1709.31
1024.709	1687.61
1025	1671.79
1025.29	1648.74
1025.58	1620.95
1025.87	1638.8
1026.16	1660.49
1026.449	1632.25
1026.739	1642.64
1027.029	1596.31
1027.319	1596.54
1027.608	1589.99
1027.898	1568.29
1028.187	1567.16
1028.477	1561.06
1028.766	1517.22
1029.055	1541.17
1029.344	1542.08
1029.634	1495.07
1029.923	1487.84
1030.212	1468.86
1030.501	1471.12
1030.79	1447.17
1031.078	1456.66
1031.367	1425.7
1031.656	1443.32
1031.945	1425.47
1032.233	1441.06
1032.522	1425.7
1032.81	1399.93
1033.099	1372.14
1033.387	1378.69
1033.675	1366.94
1033.963	1345.47
1034.251	1328.07
1034.54	1336.66
1034.828	1333.5
1035.116	1314.51
1035.403	1326.04
1035.691	1322.65
1035.979	1312.25
1036.267	1297.34
1036.554	1286.49
1036.842	1262.99
1037.129	1241.3
1037.417	1252.14
1037.704	1250.11
1037.992	1245.14
1038.279	1242.65
1038.566	1211.01
1038.853	1211.01
1039.14	1211.01
