Data from 383_FLMS001491_003.txt Node
Date: Thu Apr 19 15:42:31 BST 2018
User: hsy
Spectrometer: FLMS00149
Trigger mode: 0
Integration Time (sec): 1.000000E-2
Scans to average: 10
Electric dark correction enabled: true
Nonlinearity correction enabled: false
Boxcar width: 0
XAxis mode: Wavelengths
Number of Pixels in Spectrum: 2048
>>>>>Begin Spectral Data<<<<<
341.393	-15.62
341.776	-15.62
342.16	-15.62
342.543	-89.29
342.927	-57.43
343.31	-78.9
343.693	-56.52
344.077	-63.76
344.46	-53.13
344.843	-59.69
345.226	-54.94
345.61	-25.11
345.993	-8.62
346.376	-13.81
346.759	4.94
347.142	10.37
347.525	42.46
347.908	80.42
348.291	83.59
348.674	77.03
349.057	115.67
349.44	143.02
349.823	105.51
350.206	165.17
350.588	218.95
350.971	237.48
351.354	247.87
351.737	258.27
352.119	279.74
352.502	298.04
352.884	291.26
353.267	313.86
353.65	326.74
354.032	336.01
354.414	322.9
354.797	348.66
355.179	331.71
355.562	340.08
355.944	369.68
356.326	360.87
356.709	374.43
357.091	366.97
357.473	391.15
357.855	385.5
358.238	379.4
358.62	390.02
359.002	362.22
359.384	390.7
359.766	382.56
360.148	360.41
360.53	378.72
360.912	360.41
361.294	391.15
361.676	376.46
362.057	356.57
362.439	368.55
362.821	362.67
363.203	378.72
363.584	359.74
363.966	368.55
364.348	362.9
364.729	391.83
365.111	362.22
365.493	359.51
365.874	367.65
366.256	373.75
366.637	353.86
367.019	366.52
367.4	349.34
367.781	370.81
368.163	366.52
368.544	359.06
368.925	361.54
369.306	354.99
369.688	353.63
370.069	356.8
370.45	371.04
370.831	386.63
371.212	362.45
371.593	348.66
371.974	354.31
372.355	363.58
372.736	389.34
373.117	362.67
373.498	387.98
373.879	352.05
374.26	365.61
374.641	369.23
375.021	380.07
375.402	389.57
375.783	400.64
376.163	406.29
376.544	386.18
376.925	386.4
377.305	380.98
377.686	407.19
378.066	410.58
378.447	395.89
378.827	392.73
379.208	410.58
379.588	390.92
379.968	408.55
380.349	417.59
380.729	410.36
381.109	425.05
381.489	406.29
381.87	435.44
382.25	434.31
382.63	430.24
383.01	438.83
383.39	430.47
383.77	406.51
384.15	422.56
384.53	461.2
384.91	419.4
385.29	439.28
385.67	446.74
386.049	451.49
386.429	450.13
386.809	457.13
387.189	455.78
387.568	449.9
387.948	458.04
388.328	461.65
388.707	467.3
389.087	491.94
389.466	463.69
389.846	462.11
390.225	461.88
390.605	491.26
390.984	486.96
391.363	487.64
391.743	476.34
392.122	499.85
392.501	517.25
392.881	491.48
393.26	489.9
393.639	488.32
394.018	537.58
394.397	504.59
394.776	516.34
395.155	511.82
395.534	510.69
395.913	491.26
396.292	542.56
396.671	530.35
397.05	529.68
397.429	552.95
397.808	525.16
398.186	550.47
398.565	526.96
398.944	539.84
399.323	529
399.701	564.25
400.08	556.57
400.458	547.75
400.837	560.86
401.215	572.61
401.594	573.29
401.972	574.65
402.351	583.69
402.729	559.96
403.107	610.35
403.486	579.17
403.864	607.41
404.242	597.92
404.62	606.28
404.999	590.69
405.377	605.38
405.755	622.55
406.133	628.2
406.511	632.95
406.889	610.58
407.267	632.72
407.645	634.98
408.023	645.38
408.401	665.49
408.779	637.7
409.156	670.69
409.534	661.65
409.912	684.7
410.29	705.49
410.667	681.54
411.045	695.09
411.422	686.73
411.8	713.4
412.178	731.48
412.555	705.94
412.933	743.68
413.31	742.78
413.687	769.67
414.065	781.19
414.442	747.3
414.819	752.72
415.197	760.18
415.574	773.06
415.951	808.09
416.328	798.82
416.705	797.24
417.082	795.21
417.46	831.36
417.837	786.84
418.214	808.76
418.591	830.91
418.967	851.25
419.344	822.77
419.721	846.5
420.098	826.62
420.475	852.38
420.852	843.79
421.228	884.24
421.605	876.11
421.982	881.53
422.358	910.91
422.735	882.89
423.111	878.59
423.488	900.29
423.864	906.84
424.241	950
424.617	933.28
424.994	924.24
425.37	925.15
425.746	953.39
426.123	986.84
426.499	958.36
426.875	962.88
427.251	949.55
427.627	1008.08
428.003	1025.48
428.379	997.91
428.756	1037.23
429.132	1019.38
429.507	1039.94
429.883	1052.15
430.259	1091.92
430.635	1084.01
431.011	1079.49
431.387	1083.33
431.763	1106.84
432.138	1119.26
432.514	1132.82
432.89	1170.34
433.265	1200.39
433.641	1195.19
434.016	1170.56
434.392	1190
434.767	1230.22
435.143	1204.69
435.518	1217.57
435.894	1239.94
436.269	1268.19
436.644	1280.62
437.02	1275.42
437.395	1299.82
437.77	1302.31
438.145	1308.19
438.52	1306.15
438.895	1352.25
439.271	1348.64
439.646	1372.82
440.021	1349.99
440.395	1381.4
440.77	1366.26
441.145	1390.67
441.52	1404.23
441.895	1410.78
442.27	1406.94
442.645	1415.75
443.019	1424.12
443.394	1413.27
443.769	1431.57
444.143	1443.55
444.518	1452.14
444.892	1475.19
445.267	1473.38
445.641	1457.79
446.016	1502.53
446.39	1520.38
446.764	1500.72
447.139	1490.1
447.513	1560.61
447.887	1553.38
448.262	1554.51
448.636	1558.35
449.01	1578.24
449.384	1575.75
449.758	1626.6
450.132	1606.26
450.506	1615.97
450.88	1648.74
451.254	1653.71
451.628	1681.96
452.002	1672.02
452.376	1678.8
452.75	1721.28
453.123	1713.37
453.497	1732.13
453.871	1759.93
454.244	1822.3
454.618	1778.68
454.992	1793.6
455.365	1836.76
455.739	1870.88
456.112	1888.28
456.486	1894.16
456.859	1910.2
457.232	1981.61
457.606	1999.24
457.979	2040.82
458.352	2025.91
458.725	2059.35
459.099	2094.15
459.472	2093.7
459.845	2133.02
460.218	2145.9
460.591	2165.34
460.964	2165.11
461.337	2199.69
461.71	2265.45
462.083	2297.31
462.456	2318.33
462.829	2327.37
463.201	2353.81
463.574	2389.74
463.947	2383.86
464.32	2393.58
464.692	2439
465.065	2464.77
465.438	2493.01
465.81	2509.28
466.183	2547.02
466.555	2610.3
466.928	2606.23
467.3	2617.08
467.672	2683.52
468.045	2736.4
468.417	2716.28
468.789	2740.24
469.161	2762.61
469.534	2792.44
469.906	2870.86
470.278	2886.68
470.65	2925.54
471.022	2970.52
471.394	3003.96
471.766	3041.02
472.138	3083.51
472.51	3130.96
472.882	3168.93
473.253	3228.14
473.625	3276.95
473.997	3285.31
474.369	3368.7
474.74	3385.65
475.112	3447.11
475.484	3487.11
475.855	3594.23
476.227	3582.02
476.598	3684.85
476.97	3738.63
477.341	3853.66
477.713	3872.86
478.084	3933.2
478.455	4050.94
478.827	4066.31
479.198	4137.26
479.569	4144.95
479.94	4301.78
480.311	4385.62
480.682	4481.44
481.053	4595.33
481.424	4642.79
481.795	4696.12
482.166	4782.67
482.537	4863.8
482.908	4961.65
483.279	5058.14
483.65	5135.88
484.021	5279.38
484.391	5339.49
484.762	5388.3
485.133	5469.66
485.503	5554.4
485.874	5717.11
486.244	5775.19
486.615	5913.04
486.985	6023.09
487.356	6125.01
487.726	6217.89
488.097	6373.82
488.467	6427.37
488.837	6599.12
489.207	6743.3
489.578	6873.69
489.948	6939.68
490.318	7123.4
490.688	7186
491.058	7343.06
491.428	7545.99
491.798	7628.02
492.168	7809.26
492.538	7926.09
492.908	8062.13
493.278	8193.88
493.648	8328.79
494.017	8460.77
494.387	8615.11
494.757	8715.22
495.126	8925.61
495.496	8997.48
495.866	9179.39
496.235	9303
496.605	9538.48
496.974	9638.14
497.344	9846.04
497.713	9974.4
498.082	10141.17
498.452	10253.04
498.821	10494.39
499.19	10643.76
499.559	10803.53
499.928	11004.2
500.298	11125.1
500.667	11339.56
501.036	11435.6
501.405	11660
501.774	11789.72
502.143	12020.22
502.512	12197.84
502.88	12450.04
503.249	12583.6
503.618	12736.59
503.987	12973.42
504.356	13142
504.724	13329.11
505.093	13543.34
505.462	13645.26
505.83	13834.18
506.199	14056.78
506.567	14385.13
506.936	14483.66
507.304	14784.44
507.672	14998.67
508.041	15077.32
508.409	15292.9
508.777	15551.43
509.145	15743.29
509.514	15860.35
509.882	16111.41
510.25	16189.38
510.618	16488.8
510.986	16632.08
511.354	16768.8
511.722	17151.39
512.09	17351.61
512.458	17406.52
512.826	17640.41
513.193	17824.36
513.561	17933.51
513.929	18261.64
514.297	18549.77
514.664	18721.06
515.032	18767.16
515.4	19007.61
515.767	19227.94
516.135	19322.4
516.502	19361.5
516.869	19752.45
517.237	19926.68
517.604	19950.18
517.972	20232.89
518.339	20384.29
518.706	20579.32
519.073	20668.58
519.44	20868.8
519.808	21186.99
520.175	21208.68
520.542	21540.42
520.909	21638.5
521.276	21848.21
521.643	22217.47
522.009	22275.09
522.376	22490.91
522.743	22557.12
523.11	22838.69
523.477	23124.56
523.843	23253.15
524.21	23550.09
524.577	23707.15
524.943	23900.36
525.31	24073.24
525.676	24283.18
526.043	24558.65
526.409	24615.37
526.776	24990.73
527.142	24985.3
527.508	25162.02
527.874	25547.32
528.241	25620.32
528.607	25703.93
528.973	26059.17
529.339	26004.49
529.705	26259.85
530.071	26525.38
530.437	26697.8
530.803	26897.8
531.169	27003.78
531.535	26994.74
531.901	27154.74
532.267	27287.62
532.632	27523.09
532.998	27528.97
533.364	27837.43
533.73	27963.08
534.095	28144.77
534.461	28094.15
534.826	28303.86
535.192	28402.61
535.557	28558.77
535.923	28609.84
536.288	28780.46
536.653	28848.25
537.019	28835.37
537.384	28907.91
537.749	29088.25
538.114	29141.35
538.479	29170.5
538.845	29323.04
539.21	29290.95
539.575	29469.25
539.94	29492.98
540.305	29590.83
540.67	29646.88
541.034	29716.48
541.399	29751.51
541.764	29925.06
542.129	29931.39
542.494	30113.76
542.858	30164.83
543.223	30064.27
543.587	30480.75
543.952	30330.25
544.316	30459.96
544.681	30435.33
545.045	30555.78
545.41	30595.55
545.774	30531.82
546.138	30695.89
546.503	30687.3
546.867	30743.57
547.231	30978.82
547.595	30990.12
547.959	31092.26
548.324	31144.46
548.688	31115.76
549.052	31299.94
549.416	31310.79
549.779	31223.56
550.143	31477.11
550.507	31498.35
550.871	31622.19
551.235	31592.59
551.599	31917.1
551.962	31801.4
552.326	31969.75
552.689	32076.87
553.053	31851.56
553.417	32068.06
553.78	32283.87
554.143	32336.97
554.507	32464.43
554.87	32423.53
555.234	32614.93
555.597	32637.53
555.96	32784.19
556.323	32848.37
556.686	32796.17
557.05	33015.15
557.413	33070.06
557.776	33154.35
558.139	33266.67
558.502	33456.04
558.865	33414.01
559.228	33736.94
559.59	33665.08
559.953	33821.46
560.316	34013.99
560.679	33995.91
561.041	34273.19
561.404	34414.43
561.767	34497.82
562.129	34483.36
562.492	34827.3
562.854	34847.19
563.217	34876.12
563.579	35016.23
563.941	35168.54
564.304	35425.93
564.666	35564.91
565.028	35517.46
565.39	35699.37
565.753	35895.53
566.115	35842.19
566.477	35959.93
566.839	36158.12
567.201	36410.31
567.563	36437.43
567.925	36667.93
568.287	36738.67
568.648	36843.07
569.01	36967.59
569.372	37196.06
569.734	37183.63
570.095	37277.86
570.457	37586.78
570.819	37604.63
571.18	37580.68
571.542	37789.03
571.903	37868.58
572.265	37944.28
572.626	38164.62
572.987	38175.47
573.349	38366.65
573.71	38442.8
574.071	38575.68
574.432	38652.97
574.794	38889.12
575.155	38828.56
575.516	38843.7
575.877	39007.99
576.238	38974.31
576.599	39065.61
576.96	39253.4
577.32	39166.17
577.681	39381.08
578.042	39523
578.403	39463.79
578.763	39582.21
579.124	39479.39
579.485	39683.9
579.845	39851.81
580.206	39802.32
580.566	39812.03
580.927	39734.29
581.287	39943.33
581.648	39702.88
582.008	39978.13
582.368	39784.69
582.728	39882.76
583.089	39796.89
583.449	39799.83
583.809	39810.68
584.169	39921.18
584.529	39835.08
584.889	40112.59
585.249	39800.06
585.609	39582.89
585.969	39922.99
586.329	39744.92
586.688	39801.19
587.048	39769.32
587.408	39722.09
587.768	39830.34
588.127	39734.97
588.487	39705.14
588.846	40083.21
589.206	39669.66
589.565	39601.64
589.925	39860.62
590.284	39770
590.643	39775.88
591.003	39754.63
591.362	39882.31
591.721	39814.97
592.08	39765.93
592.44	40004.12
592.799	39687.29
593.158	39723.9
593.517	39640.29
593.876	39671.25
594.235	39585.6
594.593	39690.91
594.952	39701.75
595.311	39609.33
595.67	39647.29
596.029	39847.74
596.387	40040.5
596.746	40079.37
597.104	39748.98
597.463	39694.97
597.822	39933.39
598.18	39740.17
598.538	39761.64
598.897	40094.28
599.255	39739.49
599.613	40271.91
599.972	39864.46
600.33	40141.74
600.688	39994.4
601.046	40022.65
601.404	40245.92
601.762	40195.98
602.12	40296.99
602.478	40266.26
602.836	40289.53
603.194	40007.51
603.552	40280.95
603.91	40069.2
604.268	40172.25
604.625	40338.12
604.983	40481.62
605.341	40291.34
605.698	40296.09
606.056	40759.58
606.413	40453.15
606.771	40674.38
607.128	40776.3
607.485	40719.58
607.843	40627.15
608.2	40674.38
608.557	40904.88
608.914	40714.16
609.272	40991.89
609.629	40950.08
609.986	41192.33
610.343	41064.43
610.7	41421.93
611.057	41142.84
611.414	41134.71
611.771	41475.94
612.127	41516.17
612.484	41524.76
612.841	41627.8
613.198	41454.7
613.554	41422.84
613.911	41854.01
614.267	41734.69
614.624	41660.57
614.98	41738.76
615.337	42035.02
615.693	42010.17
616.05	42032.31
616.406	42007.68
616.762	42031.86
617.118	42015.59
617.475	42141.01
617.831	42152.76
618.187	42309.82
618.543	42256.26
618.899	42560.66
619.255	42524.96
619.611	42564.28
619.967	42728.57
620.323	42691.96
620.678	42606.99
621.034	42510.27
621.39	42541.23
621.746	42519.08
622.101	42928.11
622.457	42593.88
622.812	42835.68
623.168	42746.87
623.523	42829.13
623.879	42900.09
624.234	42627.55
624.589	42905.28
624.945	42911.16
625.3	42979.41
625.655	42923.14
626.01	42786.87
626.365	42995.23
626.72	42923.14
627.075	42720.43
627.43	42620.32
627.785	42853.08
628.14	42777.6
628.495	42880.2
628.85	42932.4
629.205	42821.9
629.559	43003.59
629.914	42820.54
630.269	42749.58
630.623	42537.61
630.978	42398.63
631.332	42714.33
631.687	42768.56
632.041	42779.64
632.396	42610.38
632.75	42656.03
633.104	42629.81
633.459	42327.45
633.813	42430.27
634.167	42365.19
634.521	42459.65
634.875	42343.49
635.229	42265.53
635.583	42107.11
635.937	42155.7
636.291	42052.88
636.645	42074.35
636.999	41897.85
637.352	42006.32
637.706	41772.88
638.06	41773.11
638.413	41718.42
638.767	41749.38
639.121	41902.82
639.474	41534.47
639.828	41477.53
640.181	41559.78
640.534	41603.17
640.888	41345.33
641.241	41192.79
641.594	41273.91
641.947	41370.64
642.301	41303.29
642.654	41310.3
643.007	41192.11
643.36	41384.42
643.713	41194.82
644.066	41387.81
644.419	41048.38
644.771	40657.89
645.124	40232.81
645.477	40354.84
645.83	40234.17
646.182	40151.01
646.535	40118.92
646.888	40272.13
647.24	40159.14
647.593	40322.08
647.945	40110.78
648.298	39911.46
648.65	39782.43
649.002	39539.05
649.355	39523
649.707	39315.32
650.059	39352.16
650.411	39722.32
650.763	40108.97
651.115	40666.02
651.467	40520.04
651.819	40547.83
652.171	40377.22
652.523	40349.42
652.875	40332.47
653.227	40235.75
653.578	40541.28
653.93	40474.61
654.282	40078.24
654.633	40174.96
654.985	40186.71
655.337	40041.4
655.688	40203.89
656.039	40194.85
656.391	39889.32
656.742	40001.86
657.094	40130.44
657.445	40082.99
657.796	40090.67
658.147	40032.59
658.498	40107.17
658.849	40271.68
659.2	40169.54
659.551	39979.71
659.902	40281.62
660.253	40114.62
660.604	40181.06
660.955	39943.55
661.306	40139.03
661.656	40024.68
662.007	39990.78
662.358	40142.19
662.708	40150.1
663.059	40145.81
663.409	39904.23
663.76	40204.34
664.11	40105.13
664.461	40193.94
664.811	40170.21
665.161	40055.42
665.511	40077.11
665.862	40066.26
666.212	40147.16
666.562	40319.82
666.912	40176.32
667.262	40069.65
667.612	40052.03
667.962	40089.31
668.312	40050.44
668.662	40340.38
669.011	40200.72
669.361	40122.98
669.711	40194.17
670.06	39961.18
670.41	40036.43
670.76	39902.43
671.109	40119.14
671.459	40108.52
671.808	40064.68
672.157	40206.6
672.507	39828.08
672.856	39812.03
673.205	39985.36
673.554	40094.06
673.904	39914.18
674.253	40103.1
674.602	39939.71
674.951	39349.45
675.3	39190.81
675.649	39866.49
675.998	39723.67
676.346	39885.7
676.695	40025.13
677.044	39587.18
677.393	39886.83
677.741	39823.78
678.09	39618.82
678.438	39472.38
678.787	39777.46
679.135	39654.52
679.484	39367.75
679.832	39618.37
680.181	39452.49
680.529	39528.65
680.877	39320.52
681.225	39202.1
681.573	39541.76
681.922	39172.73
682.27	39107.64
682.618	39102.67
682.966	38985.61
683.314	38942.45
683.661	38791.04
684.009	38672.85
684.357	38711.5
684.705	38468.79
685.053	38674.66
685.4	38506.98
685.748	38397.83
686.095	38487.77
686.443	38203.26
686.79	38188.12
687.138	38333.88
687.485	38161.91
687.832	38121.23
688.18	38113.09
688.527	37838.75
688.874	37712.2
689.221	37751.52
689.568	37728.92
689.915	37441.93
690.262	37514.47
690.609	37450.96
690.956	37202.61
691.303	37239.67
691.65	36939.34
691.997	36919.9
692.344	36745.45
692.69	36645.56
693.037	36540.93
693.383	36322.86
693.73	36427.04
694.077	36157.89
694.423	36236.08
694.769	36074.96
695.116	35925.81
695.462	35693.72
695.808	35653.72
696.155	35572.14
696.501	35320.4
696.847	35496.21
697.193	35211.02
697.539	35131.03
697.885	34952.73
698.231	34862.11
698.577	34814.42
698.923	34775.33
699.269	34468.9
699.614	34261.22
699.96	34295.57
700.306	34203.14
700.651	34148.68
700.997	34063.03
701.342	33851.74
701.688	33755.92
702.033	33558.19
702.379	33603.83
702.724	33372.2
703.069	33421.69
703.415	33151.42
703.76	32924.3
704.105	33112.55
704.45	32944.64
704.795	32853.12
705.14	32719.79
705.485	32559.57
705.83	32512.34
706.175	32644.54
706.52	32381.95
706.865	32236.19
707.209	32165.23
707.554	32163.65
707.899	32204.1
708.243	31932.01
708.588	31957.1
708.932	31741.96
709.277	31819.02
709.621	31605.69
709.966	31415.64
710.31	31478.69
710.654	31312.82
710.998	31274.86
711.342	31407.73
711.687	31224.24
712.031	31062.21
712.375	31007.97
712.719	30979.72
713.063	30869.89
713.407	30958.48
713.75	30925.71
714.094	30716.23
714.438	30658.83
714.782	30680.75
715.125	30596.91
715.469	30719.39
715.812	30451.83
716.156	30483.01
716.499	30321.43
716.843	30375.9
717.186	30274.43
717.53	30403.92
717.873	30286.41
718.216	30195.11
718.559	30169.57
718.902	29956.92
719.246	30025.62
719.589	29921.44
719.932	29745.63
720.275	29924.38
720.617	29825.63
720.96	29799.87
721.303	29919.19
721.646	29907.21
721.989	29676.71
722.331	29739.53
722.674	29607.55
723.016	29740.88
723.359	29525.07
723.701	29665.41
724.044	29458.18
724.386	29471.51
724.729	29545.86
725.071	29497.05
725.413	29503.6
725.755	29439.2
726.097	29350.61
726.439	29226.1
726.782	29287.56
727.124	29379.76
727.465	29328.01
727.807	29065.2
728.149	29221.12
728.491	29151.07
728.833	29193.33
729.175	29148.58
729.516	29070.85
729.858	29130.51
730.199	29215.25
730.541	29188.58
730.882	29027.46
731.224	29025.42
731.565	28869.27
731.906	29041.92
732.248	29031.52
732.589	28977.06
732.93	28966.22
733.271	29030.39
733.612	28923.28
733.953	29121.24
734.294	28759.89
734.635	28814.58
734.976	29041.47
735.317	28870.4
735.658	28913.34
735.999	28843.96
736.339	28848.93
736.68	28895.03
737.021	28982.26
737.361	28817.97
737.702	29018.87
738.042	28861.59
738.383	28941.36
738.723	29063.84
739.063	28906.33
739.404	29005.54
739.744	28954.69
740.084	28981.36
740.424	29136.83
740.764	28964.18
741.104	29135.7
741.444	29075.59
741.784	28987.23
742.124	29074.91
742.464	29106.1
742.804	29158.53
743.143	29074.46
743.483	29231.07
743.823	29168.02
744.162	29096.61
744.502	29186.77
744.841	29199.66
745.181	29302.03
745.52	29174.57
745.86	29339.99
746.199	29365.53
746.538	29303.38
746.877	29418.63
747.216	29397.62
747.556	29437.16
747.895	29518.74
748.234	29563.26
748.573	29517.39
748.911	29759.64
749.25	29725.07
749.589	29690.94
749.928	29770.49
750.267	29912.63
750.605	29886.87
750.944	29944.5
751.283	29985.85
751.621	30156.24
751.96	30082.57
752.298	30221.78
752.636	30253.19
752.975	30186.97
753.313	30231.04
753.651	30549.22
753.989	30403.47
754.327	30387.65
754.666	30275.11
755.004	30559.39
755.342	30628.32
755.679	30722.33
756.017	30667.19
756.355	30822.89
756.693	30738.37
757.031	30989.21
757.368	30679.62
757.706	31002.32
758.044	30929.78
758.381	31000.96
758.719	30906.5
759.056	30986.5
759.394	30885.49
759.731	30807.52
760.068	30969.55
760.405	30930.91
760.743	31038.7
761.08	31034.41
761.417	30947.63
761.754	30916.22
762.091	30891.36
762.428	30877.58
762.765	30746.28
763.102	30870.12
763.438	30937.92
763.775	30918.03
764.112	30898.14
764.449	30957.35
764.785	30789.9
765.122	30839.16
765.458	30671.71
765.795	30781.76
766.131	30791.7
766.467	30734.08
766.804	30672.61
767.14	30465.39
767.476	30463.35
767.812	30530.24
768.148	30646.85
768.485	30459.74
768.821	30269.68
769.157	30290.47
769.492	30223.36
769.828	30135
770.164	30029.69
770.5	29908.56
770.836	30070.59
771.171	29963.7
771.507	29799.19
771.842	29637.84
772.178	29577.95
772.513	29678.29
772.849	29557.84
773.184	29668.57
773.519	29402.36
773.855	29425.86
774.19	29195.59
774.525	29248.69
774.86	29142.48
775.195	29080.11
775.53	28863.85
775.865	28802.6
776.2	28691.19
776.535	28620.24
776.87	28530.07
777.205	28423.41
777.539	28318.55
777.874	28432.67
778.209	28129.4
778.543	28102.51
778.878	27999.01
779.212	28072.91
779.547	27761.95
779.881	27926.92
780.215	27689.41
780.55	27668.4
780.884	27511.56
781.218	27285.81
781.552	27404.45
781.886	27385.69
782.22	27119.94
782.554	27054.63
782.888	26789.78
783.222	26838.81
783.556	26594.53
783.889	26528.31
784.223	26442.89
784.557	26533.06
784.89	26553.85
785.224	26309.34
785.557	26254.2
785.891	26191.6
786.224	26025.5
786.558	26183.46
786.891	25850.59
787.224	25620.54
787.557	25669.81
787.891	25723.36
788.224	25507.78
788.557	25493.31
788.89	25389.81
789.223	25392.3
789.556	25149.82
789.888	25207.22
790.221	25012.65
790.554	24977.62
790.887	24975.81
791.219	24726.55
791.552	24683.84
791.884	24675.26
792.217	24619.89
792.549	24378.09
792.882	24376.05
793.214	24390.29
793.546	24321.82
793.879	24142.61
794.211	24012.45
794.543	24092.22
794.875	23924.77
795.207	23912.11
795.539	23882.73
795.871	23980.36
796.203	23645.68
796.535	23598.9
796.867	23528.17
797.198	23368.62
797.53	23430.99
797.862	23095.18
798.193	23351.9
798.525	23172.92
798.856	23226.25
799.188	22972.25
799.519	22844.34
799.85	22787.17
800.182	22795.98
800.513	22817.68
800.844	22465.37
801.175	22654.74
801.506	22476.44
801.837	22502.2
802.168	22384.24
802.499	22420.4
802.83	22285.94
803.161	22030.35
803.491	22274.19
803.822	22236.45
804.153	22020.64
804.483	21866.74
804.814	21790.59
805.145	21708.1
805.475	21793.52
805.805	21761.43
806.136	21781.77
806.466	21588.78
806.796	21594.21
807.126	21546.98
807.457	21431.95
807.787	21454.1
808.117	21303.59
808.447	21369.81
808.777	21399.86
809.107	21137.04
809.436	21126.65
809.766	21152.18
810.096	21048.91
810.426	20912.19
810.755	21107.21
811.085	20885.75
811.414	20949.03
811.744	20840.1
812.073	20807.56
812.403	20758.75
812.732	20608.92
813.061	20813.89
813.39	20520.34
813.719	20409.6
814.049	20481.02
814.378	20587
814.707	20327.35
815.036	20309.72
815.365	20180.68
815.693	20144.07
816.022	20119.44
816.351	20129.61
816.68	20048.03
817.008	20110.4
817.337	19869.05
817.665	19875.61
817.994	19812.33
818.322	19943.63
818.651	19876.51
818.979	19708.61
819.307	19784.99
819.636	19802.16
819.964	19681.71
820.292	19826.57
820.62	19641.94
820.948	19717.19
821.276	19834.48
821.604	19722.84
821.932	19894.36
822.259	19577.99
822.587	19623.18
822.915	19627.93
823.243	19611.89
823.57	19578.89
823.898	19717.42
824.225	19594.71
824.553	19684.88
824.88	19617.99
825.207	19628.38
825.535	19518.78
825.862	19659.79
826.189	19545.22
826.516	19695.5
826.843	19699.79
827.17	19650.53
827.497	19678.78
827.824	19621.15
828.151	19731.43
828.478	19641.04
828.805	19803.52
829.131	19676.97
829.458	19559.68
829.785	19563.3
830.111	19587.71
830.438	19767.81
830.764	19658.89
831.09	19722.17
831.417	19497.99
831.743	19679.45
832.069	19549.06
832.395	19548.38
832.722	19577.76
833.048	19440.82
833.374	19583.86
833.7	19389.52
834.026	19516.75
834.351	19487.59
834.677	19592.9
835.003	19472.23
835.329	19574.82
835.654	19454.38
835.98	19411.44
836.306	19424.09
836.631	19414.83
836.956	19595.39
837.282	19584.54
837.607	19387.94
837.932	19386.58
838.258	19381.16
838.583	19243.08
838.908	19210.77
839.233	19201.5
839.558	19189.07
839.883	19201.05
840.208	19127.15
840.533	19094.16
840.858	19164.67
841.182	19141.39
841.507	19099.36
841.832	18981.85
842.156	18981.62
842.481	18899.59
842.805	18909.31
843.13	18846.03
843.454	18846.03
843.778	18775.52
844.103	18740.5
844.427	18759.03
844.751	18699.14
845.075	18601.29
845.399	18545.25
845.723	18576.21
846.047	18470.67
846.371	18315.87
846.695	18384.57
847.019	18164.92
847.343	18081.76
847.666	17966.73
847.99	18000.4
848.313	17933.96
848.637	17915.88
848.96	17891.48
849.284	17805.61
849.607	17617.36
849.931	17646.06
850.254	17615.55
850.577	17453.98
850.9	17349.8
851.223	17285.39
851.546	17296.24
851.869	17112.06
852.192	17198.39
852.515	17035.68
852.838	17067.32
853.161	16903.71
853.483	16952.75
853.806	16909.13
854.129	16816.25
854.451	16758.18
854.774	16644.51
855.096	16643.38
855.419	16545.75
855.741	16445.64
856.063	16396.6
856.385	16371.74
856.708	16433.44
857.03	16359.54
857.352	16265.76
857.674	16258.08
857.996	16149.15
858.318	16092.2
858.64	16163.84
858.961	16013.34
859.283	15918.2
859.605	15897.41
859.926	15923.85
860.248	15889.5
860.57	15775.83
860.891	15828.03
861.212	15720.24
861.534	15592.78
861.855	15634.81
862.176	15652.44
862.498	15616.51
862.819	15611.09
863.14	15491.32
863.461	15521.15
863.782	15443.86
864.103	15423.07
864.424	15376.74
864.745	15463.75
865.065	15352.34
865.386	15232.34
865.707	15321.6
866.027	15270.98
866.348	15253.13
866.668	15223.53
866.989	15126.58
867.309	15096.98
867.63	15099.01
867.95	15105.79
868.27	15075.28
868.59	15091.78
868.91	14921.61
869.23	14981.95
869.55	14918.45
869.87	15040.03
870.19	14922.52
870.51	14917.32
870.83	14830.54
871.15	14830.99
871.469	14781.05
871.789	14953.93
872.109	14904.89
872.428	14725.01
872.748	14786.93
873.067	14766.82
873.386	14718.91
873.706	14669.64
874.025	14536.09
874.344	14567.27
874.663	14641.85
874.982	14564.79
875.301	14584.22
875.62	14501.96
875.939	14506.71
876.258	14542.41
876.577	14414.96
876.896	14443.66
877.214	14344.45
877.533	14396.43
877.852	14363.89
878.17	14400.95
878.489	14334.51
878.807	14254.29
879.125	14344.45
879.444	14252.03
879.762	14207.06
880.08	14207.51
880.398	14129.77
880.716	14170.45
881.034	14107.17
881.352	14152.82
881.67	14068.75
881.988	14081.86
882.306	14021.75
882.624	13996.89
882.941	14003.22
883.259	13898.36
883.577	13894.75
883.894	13832.83
884.212	13857.91
884.529	13731.81
884.846	13730.23
885.164	13656.34
885.481	13652.72
885.798	13704.02
886.115	13523.91
886.432	13534.98
886.75	13581.08
887.067	13599.39
887.383	13522.78
887.7	13585.38
888.017	13301.09
888.334	13357.13
888.651	13327.76
888.967	13289.34
889.284	13309.23
889.6	13217.48
889.917	13156.01
890.233	13239.17
890.55	13171.38
890.866	13215.22
891.182	13123.24
891.498	13125.05
891.815	12959.41
892.131	12950.82
892.447	12876.24
892.763	12899.75
893.079	12814.78
893.395	12754.44
893.71	12748.79
894.026	12753.31
894.342	12702.24
894.657	12588.57
894.973	12612.3
895.289	12544.73
895.604	12551.28
895.92	12514.22
896.235	12419.76
896.55	12373.66
896.865	12389.93
897.181	12333.43
897.496	12262.93
897.811	12267.9
898.126	12275.81
898.441	12182.25
898.756	12219.09
899.071	12043.04
899.386	12127.56
899.7	12036.49
900.015	12004.4
900.33	11946.78
900.644	11834.46
900.959	11844.86
901.273	11797.63
901.588	11747.46
901.902	11764.86
902.216	11728.02
902.531	11737.06
902.845	11705.65
903.159	11519.22
903.473	11496.39
903.787	11499.1
904.101	11407.36
904.415	11463.85
904.729	11354.48
905.042	11269.28
905.356	11236.74
905.67	11213.01
905.984	11265.89
906.297	11201.26
906.611	11052.56
906.924	11061.83
907.237	11018.67
907.551	10979.34
907.864	10885.79
908.177	10910.65
908.491	10875.17
908.804	10827.94
909.117	10793.59
909.43	10616.87
909.743	10657.09
910.056	10682.4
910.368	10571.45
910.681	10536.42
910.994	10547.94
911.307	10481.28
911.619	10416.2
911.932	10486.93
912.244	10299.36
912.557	10268.4
912.869	10208.06
913.181	10232.92
913.494	10270.21
913.806	10132.13
914.118	10075.87
914.43	10051.01
914.742	10026.83
915.054	9906.83
915.366	9834.74
915.678	9855.31
915.99	9830.9
916.302	9779.15
916.613	9682.66
916.925	9759.04
917.236	9693.73
917.548	9589.55
917.859	9560.85
918.171	9527.86
918.482	9475.65
918.794	9516.33
919.105	9404.92
919.416	9278.15
919.727	9387.52
920.038	9342.78
920.349	9242.44
920.66	9246.51
920.971	9236.34
921.282	9227.53
921.593	9162.44
921.903	9049.45
922.214	9061.88
922.525	9043.35
922.835	9013.75
923.146	8893.52
923.456	8843.81
923.767	8827.08
924.077	8796.8
924.387	8810.81
924.697	8750.93
925.008	8711.38
925.318	8655.34
925.628	8718.39
925.938	8662.12
926.248	8608.78
926.558	8461.9
926.867	8486.08
927.177	8462.8
927.487	8423.03
927.796	8409.69
928.106	8324.95
928.416	8280.66
928.725	8248.79
929.034	8253.31
929.344	8202.24
929.653	8225.52
929.962	8088.8
930.271	8044.51
930.581	8041.12
930.89	8028.91
931.199	8001.34
931.508	8019.2
931.817	8013.09
932.125	7912.76
932.434	7909.59
932.743	7769.48
933.051	7759.99
933.36	7811.29
933.669	7647.68
933.977	7675.02
934.286	7614.01
934.594	7644.29
934.902	7605.42
935.21	7578.76
935.519	7515.03
935.827	7460.11
936.135	7429.83
936.443	7389.16
936.751	7388.03
937.059	7347.8
937.367	7367.69
937.674	7348.93
937.982	7267.58
938.29	7230.06
938.597	7236.17
938.905	7217.64
939.213	7103.06
939.52	7087.47
939.827	7086.11
940.135	7066
940.442	7024.42
940.749	6978.09
941.056	6947.59
941.363	6908.26
941.67	6910.3
941.977	6806.8
942.284	6839.34
942.591	6784.43
942.898	6795.73
943.205	6790.75
943.511	6705.78
943.818	6637.09
944.125	6656.97
944.431	6622.62
944.738	6646.58
945.044	6564.77
945.35	6518.67
945.657	6537.65
945.963	6534.72
946.269	6496.3
946.575	6495.39
946.881	6400.48
947.187	6421.05
947.493	6332.23
947.799	6310.09
948.105	6290.2
948.41	6227.83
948.716	6243.42
949.022	6233.93
949.327	6177.44
949.633	6149.41
949.938	6150.32
950.244	6140.15
950.549	6066.93
950.854	6026.25
951.16	6018.12
951.465	6018.57
951.77	5991.9
952.075	5945.35
952.38	5953.04
952.685	5896.31
952.99	5852.02
953.294	5853.83
953.599	5767.73
953.904	5792.36
954.209	5735.19
954.513	5787.62
954.818	5706.49
955.122	5708.07
955.426	5716.88
955.731	5664
956.035	5580.39
956.339	5584.23
956.643	5560.28
956.948	5532.03
957.252	5529.32
957.556	5516.21
957.86	5468.53
958.163	5439.15
958.467	5452.71
958.771	5475.76
959.075	5402.99
959.378	5363.45
959.682	5397.8
959.985	5337.23
960.289	5347.18
960.592	5291.81
960.896	5306.95
961.199	5218.59
961.502	5226.73
961.805	5198.71
962.108	5120.29
962.411	5106.05
962.714	5096.33
963.017	5090.01
963.32	5118.48
963.623	5044.58
963.926	4991.03
964.228	5011.82
964.531	5007.75
964.833	5024.02
965.136	4948.54
965.438	4941.54
965.741	4844.82
966.043	4872.61
966.345	4839.62
966.648	4806.17
966.95	4772.95
967.252	4789
967.554	4739.06
967.856	4710.81
968.158	4715.55
968.46	4733.86
968.761	4673.75
969.063	4687.53
969.365	4646.63
969.666	4602.11
969.968	4549
970.269	4556.24
970.571	4556.91
970.872	4530.25
971.174	4494.32
971.475	4526.63
971.776	4470.59
972.077	4423.81
972.378	4413.87
972.679	4460.65
972.98	4408.44
973.281	4392.17
973.582	4380.87
973.883	4386.52
974.183	4340.2
974.484	4280.09
974.785	4273.31
975.085	4241.22
975.386	4273.53
975.686	4228.34
975.986	4209.35
976.287	4234.44
976.587	4163.03
976.887	4183.14
977.187	4193.53
977.487	4131.84
977.787	4106.3
978.087	4112.63
978.387	4052.52
978.687	4052.97
978.987	3996.7
979.286	4014.1
979.586	4021.33
979.885	3958.96
980.185	3937.95
980.484	3963.26
980.784	3914.67
981.083	3885.29
981.382	3874.22
981.682	3873.09
981.981	3853.43
982.28	3825.86
982.579	3831.28
982.878	3796.48
983.177	3790.15
983.475	3782.25
983.774	3732.3
984.073	3723.94
984.372	3726.65
984.67	3717.61
984.969	3730.04
985.267	3683.26
985.566	3646.88
985.864	3631.74
986.162	3628.12
986.461	3624.74
986.759	3588.58
987.057	3553.78
987.355	3559.43
987.653	3562.36
987.951	3511.97
988.249	3484.4
988.547	3491.41
988.844	3454.12
989.142	3454.8
989.44	3413.44
989.737	3400.79
990.035	3407.79
990.332	3431.52
990.63	3375.7
990.927	3365.08
991.224	3319.66
991.521	3293.9
991.819	3271.52
992.116	3282.6
992.413	3302.48
992.71	3229.04
993.006	3252.99
993.303	3198.08
993.6	3236.5
993.897	3212.99
994.193	3130.51
994.49	3152.88
994.787	3142.71
995.083	3135.48
995.379	3096.16
995.676	3134.35
995.972	3062.04
996.268	3062.26
996.565	3013.45
996.861	3031.98
997.157	3008.25
997.453	2999.67
997.749	2992.89
998.044	2989.95
998.34	2975.94
998.636	2968.26
998.932	2917.64
999.227	2909.05
999.523	2910.18
999.818	2887.35
1000.114	2851.42
1000.409	2856.39
1000.704	2841.03
1001	2820.01
1001.295	2799.45
1001.59	2791.54
1001.885	2806.23
1002.18	2765.1
1002.475	2737.53
1002.77	2770.75
1003.065	2716.28
1003.359	2700.01
1003.654	2682.39
1003.949	2628.6
1004.243	2656.63
1004.538	2621.82
1004.832	2604.65
1005.127	2638.09
1005.421	2597.64
1005.715	2605.78
1006.009	2590.19
1006.304	2566.01
1006.598	2517.42
1006.892	2546.12
1007.186	2509.28
1007.48	2505.67
1007.773	2440.81
1008.067	2468.61
1008.361	2439.23
1008.655	2460.25
1008.948	2400.36
1009.242	2428.38
1009.535	2379.8
1009.829	2363.98
1010.122	2364.2
1010.415	2358.1
1010.708	2302.06
1011.001	2325.56
1011.295	2343.19
1011.588	2320.59
1011.881	2292.79
1012.173	2268.39
1012.466	2269.52
1012.759	2219.35
1013.052	2252.12
1013.344	2238.1
1013.637	2201.5
1013.93	2217.54
1014.222	2176.86
1014.514	2161.5
1014.807	2166.02
1015.099	2121.27
1015.391	2128.5
1015.683	2125.79
1015.976	2114.04
1016.268	2075.85
1016.56	2022.74
1016.851	2036.75
1017.143	2063.42
1017.435	2015.74
1017.727	1997.89
1018.018	2026.36
1018.31	1978.68
1018.602	1987.72
1018.893	1945.91
1019.185	1952.01
1019.476	1947.72
1019.767	1913.59
1020.058	1886.02
1020.35	1922.18
1020.641	1905.46
1020.932	1883.76
1021.223	1904.33
1021.514	1845.57
1021.804	1843.31
1022.095	1850.09
1022.386	1806.25
1022.677	1829.53
1022.967	1771
1023.258	1787.27
1023.548	1761.73
1023.839	1748.17
1024.129	1723.54
1024.419	1745.24
1024.709	1705.92
1025	1676.31
1025.29	1716.31
1025.58	1690.1
1025.87	1660.49
1026.16	1655.07
1026.449	1662.98
1026.739	1623.43
1027.029	1603.32
1027.319	1600.16
1027.608	1625.24
1027.898	1575.98
1028.187	1572.81
1028.477	1606.03
1028.766	1574.39
1029.055	1560.16
1029.344	1532.36
1029.634	1539.14
1029.923	1533.26
1030.212	1513.15
1030.501	1488.97
1030.79	1514.51
1031.078	1517.22
1031.367	1477
1031.656	1465.02
1031.945	1455.53
1032.233	1455.07
1032.522	1466.15
1032.81	1408.52
1033.099	1430.67
1033.387	1390.67
1033.675	1400.39
1033.963	1370.11
1034.251	1405.13
1034.54	1362.2
1034.828	1371.69
1035.116	1330.11
1035.403	1329.43
1035.691	1333.5
1035.979	1296.89
1036.267	1296.66
1036.554	1300.73
1036.842	1287.4
1037.129	1274.97
1037.417	1280.16
1037.704	1264.57
1037.992	1251.46
1038.279	1270.45
1038.566	1239.26
1038.853	1239.26
1039.14	1239.26
