Data from 383_FLMS001491_006.txt Node
Date: Thu Apr 19 15:42:39 BST 2018
User: hsy
Spectrometer: FLMS00149
Trigger mode: 0
Integration Time (sec): 1.000000E-2
Scans to average: 10
Electric dark correction enabled: true
Nonlinearity correction enabled: false
Boxcar width: 0
XAxis mode: Wavelengths
Number of Pixels in Spectrum: 2048
>>>>>Begin Spectral Data<<<<<
341.393	-7.47
341.776	-7.47
342.16	-7.47
342.543	-36.85
342.927	-70.29
343.31	-86.11
343.693	-60.8
344.077	-85.21
344.46	-51.09
344.843	-70.52
345.226	-33.23
345.61	-20.58
345.993	-9.96
346.376	6.31
346.759	19.65
347.142	13.54
347.525	46.76
347.908	45.18
348.291	94.22
348.674	79.98
349.057	111.85
349.44	125.18
349.823	156.14
350.206	163.6
350.588	239.08
350.971	252.63
351.354	263.26
351.737	278.4
352.119	256.7
352.502	316.36
352.884	312.97
353.267	321.56
353.65	335.34
354.032	354.1
354.414	327.66
354.797	358.17
355.179	351.62
355.562	374.21
355.944	377.6
356.326	373.08
356.709	398.39
357.091	384.83
357.473	375.34
357.855	375.8
358.238	378.06
358.62	382.57
359.002	385.51
359.384	379.86
359.766	386.19
360.148	406.3
360.53	359.3
360.912	400.2
361.294	376.25
361.676	376.25
362.057	380.54
362.439	376.02
362.821	365.85
363.203	357.72
363.584	388.45
363.966	355.23
364.348	362.91
364.729	372.63
365.111	365.85
365.493	371.05
365.874	376.02
366.256	369.69
366.637	372.41
367.019	356.13
367.4	365.85
367.781	365.63
368.163	372.86
368.544	361.11
368.925	378.51
369.306	364.27
369.688	360.88
370.069	372.63
370.45	364.5
370.831	375.34
371.212	362.91
371.593	382.12
371.974	348.23
372.355	361.33
372.736	370.82
373.117	412.18
373.498	379.86
373.879	373.76
374.26	355.46
374.641	371.28
375.021	375.57
375.402	386.87
375.783	388
376.163	396.81
376.544	394.1
376.925	393.42
377.305	375.8
377.686	381.44
378.066	396.13
378.447	418.96
378.827	416.02
379.208	395.91
379.588	415.57
379.968	401.33
380.349	402.69
380.729	400.65
381.109	411.73
381.489	429.58
381.87	418.96
382.25	422.35
382.63	429.58
383.01	449.24
383.39	409.92
383.77	425.96
384.15	447.43
384.53	442.46
384.91	451.5
385.29	441.1
385.67	444.95
386.049	450.14
386.429	455.57
386.809	443.14
387.189	455.79
387.568	458.96
387.948	463.93
388.328	433.19
388.707	441.1
389.087	469.13
389.466	474.55
389.846	468.9
390.225	463.93
390.605	467.54
390.984	464.15
391.363	465.51
391.743	504.61
392.122	489.46
392.501	479.07
392.881	463.25
393.26	504.15
393.639	497.15
394.018	517.71
394.397	506.64
394.776	505.74
395.155	517.94
395.534	503.25
395.913	505.51
396.292	499.86
396.671	518.84
397.05	538.5
397.429	533.08
397.808	544.83
398.186	522.23
398.565	537.15
398.944	535.79
399.323	529.46
399.701	528.56
400.08	556.81
400.458	558.16
400.837	552.29
401.215	557.03
401.594	561.1
401.972	568.11
402.351	572.4
402.729	596.35
403.107	606.98
403.486	590.03
403.864	550.25
404.242	591.38
404.62	603.36
404.999	601.33
405.377	613.3
405.755	586.86
406.133	608.11
406.511	612.85
406.889	613.3
407.267	648.1
407.645	636.35
408.023	636.81
408.401	646.97
408.779	635.68
409.156	651.04
409.534	672.74
409.912	670.93
410.29	687.88
410.667	703.7
411.045	693.75
411.422	685.17
411.8	708.67
412.178	715
412.555	717.93
412.933	733.75
413.31	735.79
413.687	736.92
414.065	727.88
414.442	740.76
414.819	759.29
415.197	740.98
415.574	760.42
415.951	775.11
416.328	781.89
416.705	782.11
417.082	776.69
417.46	787.99
417.837	792.73
418.214	789.57
418.591	794.32
418.967	817.37
419.344	825.5
419.721	821.66
420.098	827.53
420.475	817.59
420.852	827.76
421.228	847.2
421.605	851.04
421.982	829.34
422.358	860.98
422.735	877.7
423.111	872.05
423.488	873.64
423.864	903.69
424.241	902.11
424.617	903.69
424.994	907.98
425.37	924.93
425.746	903.24
426.123	945.72
426.499	938.49
426.875	967.64
427.251	955.21
427.627	958.38
428.003	982.33
428.379	995.44
428.756	1027.53
429.132	987.76
429.507	1033.41
429.883	1024.59
430.259	1032.05
430.635	1049.22
431.011	1065.27
431.387	1077.25
431.763	1094.19
432.138	1101.2
432.514	1096.23
432.89	1111.6
433.265	1151.82
433.641	1152.72
434.016	1142.55
434.392	1187.98
434.767	1207.64
435.143	1161.76
435.518	1231.59
435.894	1203.12
436.269	1224.59
436.644	1232.04
437.02	1250.57
437.395	1255.09
437.77	1267.75
438.145	1281.99
438.52	1277.24
438.895	1300.29
439.271	1301.19
439.646	1297.13
440.021	1310.46
440.395	1357.92
440.77	1308.88
441.145	1339.84
441.52	1364.02
441.895	1348.2
442.27	1370.57
442.645	1348.2
443.019	1400.85
443.394	1395.43
443.769	1414.86
444.143	1397.01
444.518	1409.21
444.892	1458.03
445.267	1422.77
445.641	1446.95
446.016	1448.99
446.39	1477.69
446.764	1460.74
447.139	1488.31
447.513	1481.75
447.887	1513.62
448.262	1502.55
448.636	1494.86
449.01	1536.67
449.384	1542.54
449.758	1544.58
450.132	1576.44
450.506	1564.24
450.88	1583.67
451.254	1586.16
451.628	1625.71
452.002	1624.58
452.376	1630
452.75	1669.77
453.123	1677.46
453.497	1667.74
453.871	1689.21
454.244	1727.4
454.618	1750.22
454.992	1768.3
455.365	1799.71
455.739	1816.44
456.112	1824.57
456.486	1851.01
456.859	1881.97
457.232	1901.86
457.606	1926.94
457.979	1904.12
458.352	1999.48
458.725	1964.68
459.099	2013.27
459.472	2023.21
459.845	2055.07
460.218	2081.97
460.591	2074.51
460.964	2117.67
461.337	2157.22
461.71	2233.37
462.083	2206.03
462.456	2210.32
462.829	2219.81
463.201	2258.91
463.574	2273.82
463.947	2289.87
464.32	2358.12
464.692	2355.4
465.065	2385.46
465.438	2428.4
465.81	2448.74
466.183	2426.14
466.555	2496.19
466.928	2531.67
467.3	2547.49
467.672	2553.37
468.045	2629.07
468.417	2633.59
468.789	2670.42
469.161	2672.23
469.534	2679.01
469.906	2777.09
470.278	2820.93
470.65	2821.83
471.022	2885.79
471.394	2897.54
471.766	2910.42
472.138	2967.59
472.51	3000.81
472.882	3065.44
473.253	3058.21
473.625	3176.63
473.997	3207.36
474.369	3255.04
474.74	3284.87
475.112	3353.8
475.484	3393.57
475.855	3423.4
476.227	3491.19
476.598	3591.08
476.97	3602.6
477.341	3676.5
477.713	3720.79
478.084	3763.05
478.455	3854.35
478.827	3963.72
479.198	4002.37
479.569	4033.55
479.94	4177.5
480.311	4221.34
480.682	4283.49
481.053	4404.39
481.424	4485.52
481.795	4501.56
482.166	4620.43
482.537	4663.14
482.908	4796.92
483.279	4873.98
483.65	4963.7
484.021	5061.32
484.391	5153.75
484.762	5178.15
485.133	5281.88
485.503	5359.39
485.874	5523
486.244	5547.41
486.615	5725.26
486.985	5792.15
487.356	5940.85
487.726	5965.25
488.097	6142.2
488.467	6207.96
488.837	6365.47
489.207	6466.26
489.578	6658.57
489.948	6758.45
490.318	6848.17
490.688	6894.72
491.058	7070.31
491.428	7191.66
491.798	7323.18
492.168	7559.11
492.538	7636.85
492.908	7830.51
493.278	7960.91
493.648	8043.62
494.017	8155.25
494.387	8329.03
494.757	8449.26
495.126	8580.78
495.496	8778.29
495.866	8893.31
496.235	9054.44
496.605	9215.56
496.974	9327.88
497.344	9584.82
497.713	9646.29
498.082	9835.43
498.452	9982.55
498.821	10204.24
499.19	10318.81
499.559	10520.84
499.928	10670.89
500.298	10827.5
500.667	11002.18
501.036	11092.35
501.405	11328.05
501.774	11418.44
502.143	11712.45
502.512	11837.64
502.88	12074.92
503.249	12179.78
503.618	12421.35
503.987	12612.76
504.356	12802.81
504.724	12929.14
505.093	13033.54
505.462	13306.08
505.83	13520.08
506.199	13751.04
506.567	14104.47
506.936	14084.36
507.304	14351.47
507.672	14542.88
508.041	14638.92
508.409	14944
508.777	15179.7
509.145	15400.03
509.514	15474.61
509.882	15774.94
510.25	15956.18
510.618	16160.24
510.986	16189.62
511.354	16395.94
511.722	16669.15
512.09	16981.69
512.458	17061.46
512.826	17199.31
513.193	17389.81
513.561	17522.01
513.929	17739.86
514.297	17983.02
514.664	18139.85
515.032	18329.22
515.4	18596.79
515.767	18683.34
516.135	18850.11
516.502	18906.61
516.869	19304.79
517.237	19347.27
517.604	19316.99
517.972	19745.46
518.339	19942.29
518.706	20068.16
519.073	20241.04
519.44	20317.64
519.808	20537.3
520.175	20656.84
520.542	20983.61
520.909	21132.54
521.276	21269.03
521.643	21506.31
522.009	21727.32
522.376	21828.34
522.743	21948.79
523.11	22328.44
523.477	22497.47
523.843	22714.64
524.21	22907.63
524.577	23156.67
524.943	23222.43
525.31	23293.38
525.676	23646.82
526.043	23893.14
526.409	23963.42
526.776	24282.29
527.142	24469.62
527.508	24611.99
527.874	24768.6
528.241	24852.21
528.607	24955.04
528.973	25356.61
529.339	25284.52
529.705	25569.71
530.071	25823.94
530.437	25919.08
530.803	26147.55
531.169	26157.49
531.535	26342.57
531.901	26384.6
532.267	26596.57
532.632	26860.07
532.998	26840.64
533.364	27024.13
533.73	27147.07
534.095	27337.12
534.461	27356.33
534.826	27494.86
535.192	27581.86
535.557	27860.95
535.923	27702.31
536.288	27930.32
536.653	27931.91
537.019	27874.06
537.384	28026.14
537.749	28201.73
538.114	28252.35
538.479	28263.65
538.845	28439.69
539.21	28284.89
539.575	28562.4
539.94	28594.26
540.305	28867.7
540.67	28682.17
541.034	28876.97
541.399	28861.6
541.764	28981.37
542.129	29176.85
542.494	29116.06
542.858	29263.62
543.223	29115.38
543.587	29366.67
543.952	29200.57
544.316	29376.39
544.681	29374.58
545.045	29602.37
545.41	29745.19
545.774	29613.67
546.138	29717.62
546.503	29886.43
546.867	29866.09
547.231	29977.5
547.595	30048.91
547.959	30147.44
548.324	30078.52
548.688	30237.83
549.052	30428.34
549.416	30246.65
549.779	30358.06
550.143	30435.12
550.507	30580.88
550.871	30680.99
551.235	30593.08
551.599	30954.43
551.962	30933.18
552.326	30956.23
552.689	31037.59
553.053	30932.96
553.417	30968.66
553.78	31322.1
554.143	31227.64
554.507	31430.35
554.87	31530.68
555.234	31737.91
555.597	31465.6
555.96	31620.62
556.323	31729.1
556.686	31751.47
557.05	32009.31
557.413	32051.57
557.776	32181.74
558.139	32422.18
558.502	32322.98
558.865	32408.85
559.228	32619.02
559.59	32610.43
559.953	32890.87
560.316	33155.05
560.679	33215.84
561.041	33284.31
561.404	33473.68
561.767	33685.65
562.129	33493.79
562.492	33760.68
562.854	33816.72
563.217	33829.15
563.579	34045.19
563.941	34169.48
564.304	34252.42
564.666	34517.27
565.028	34430.72
565.39	34589.13
565.753	34912.97
566.115	34946.64
566.477	35098.5
566.839	35201.55
567.201	35534.64
567.563	35380.75
567.925	35663
568.287	35620.74
568.648	35761.98
569.01	35984.35
569.372	36244.91
569.734	36196.32
570.095	36356.32
570.457	36637.21
570.819	36580.72
571.18	36640.38
571.542	36883.76
571.903	36872.46
572.265	36944.78
572.626	37050.54
572.987	37103.64
573.349	37211.21
573.71	37315.39
574.071	37433.8
574.432	37650.52
574.794	37803.96
575.155	37847.13
575.516	37861.82
575.877	37942.49
576.238	38073.79
576.599	38139.77
576.96	38206.44
577.32	38069.49
577.681	38238.53
578.042	38477.17
578.403	38250.73
578.763	38435.81
579.124	38509.93
579.485	38706.54
579.845	38757.16
580.206	38473.32
580.566	38668.8
580.927	38593.1
581.287	38831.73
581.648	38629.48
582.008	38921.67
582.368	38869.02
582.728	38874.9
583.089	38865.18
583.449	38778.85
583.809	38815.46
584.169	38781.57
584.529	38606.88
584.889	39041.67
585.249	38795.58
585.609	38531.18
585.969	39015.91
586.329	38613.66
586.688	38926.65
587.048	38898.17
587.408	38711.96
587.768	38717.16
588.127	38726.65
588.487	38667.67
588.846	39049.35
589.206	38523.27
589.565	38633.09
589.925	38844.16
590.284	38506.32
590.643	38629.03
591.003	38766.42
591.362	38731.85
591.721	38623.83
592.08	38624.96
592.44	38825.41
592.799	38763.49
593.158	38793.09
593.517	38627.9
593.876	38806.65
594.235	38531.63
594.593	38724.39
594.952	38807.78
595.311	38657.27
595.67	38721.91
596.029	38861.11
596.387	38916.02
596.746	38914.67
597.104	38647.11
597.463	38661.34
597.822	38953.99
598.18	38691.62
598.538	38721.68
598.897	38905.63
599.255	38674.68
599.613	39166.19
599.972	38847.33
600.33	38880.77
600.688	38812.07
601.046	39027.66
601.404	39271.72
601.762	39000.77
602.12	39123.25
602.478	39226.75
602.836	39176.58
603.194	38874.44
603.552	38971.39
603.91	39074.66
604.268	39173.42
604.625	39161.67
604.983	39319.4
605.341	39115.57
605.698	39346.3
606.056	39534.99
606.413	39273.3
606.771	39621.09
607.128	39368.67
607.485	39379.52
607.843	39455.22
608.2	39488.21
608.557	39629
608.914	39591.26
609.272	39643.69
609.629	39939.05
609.986	39945.83
610.343	39850.46
610.7	40253.84
611.057	40003.23
611.414	39875.55
611.771	40156.9
612.127	40283.9
612.484	40271.02
612.841	40342.2
613.198	40236.67
613.554	40249.55
613.911	40544
614.267	40569.31
614.624	40443.67
614.98	40693.15
615.337	40832.81
615.693	40727.05
616.05	40873.26
616.406	40995.52
616.762	40736.99
617.118	40913.71
617.475	40859.48
617.831	41111
618.187	41224.89
618.543	41127.27
618.899	41339.01
619.255	41362.29
619.611	41291.78
619.967	41340.82
620.323	41529.29
620.678	41362.06
621.034	41437.77
621.39	41381.72
621.746	41473.02
622.101	41956.4
622.457	41539.46
622.812	41765.22
623.168	41677.99
623.523	41701.94
623.879	41915.04
624.234	41581.27
624.589	41759.79
624.945	41820.58
625.3	41849.28
625.655	41772.22
626.01	41724.31
626.365	41802.95
626.72	41751.88
627.075	41609.74
627.43	41584.88
627.785	41750.75
628.14	41653.81
628.495	41696.29
628.85	41713.47
629.205	41584.66
629.559	41735.16
629.914	41572.45
630.269	41652.22
630.623	41508.72
630.978	41395.96
631.332	41534.49
631.687	41488.84
632.041	41380.59
632.396	41447.03
632.75	41335.85
633.104	41432.12
633.459	41151.22
633.813	41328.62
634.167	41214.95
634.521	41313.25
634.875	41146.25
635.229	41020.6
635.583	40854.28
635.937	40827.16
636.291	40863.77
636.645	40765.69
636.999	40617.22
637.352	40742.42
637.706	40629.43
638.06	40850.21
638.413	40643.89
638.767	40455.19
639.121	40423.56
639.474	40402.09
639.828	40417
640.181	40275.31
640.534	40486.83
640.888	40360.96
641.241	40006.84
641.594	40144.47
641.947	40253.62
642.301	40085.94
642.654	40108.54
643.007	39934.3
643.36	40057.92
643.713	39991.7
644.066	40214.52
644.419	39808.2
644.771	39451.83
645.124	39163.48
645.477	38977.72
645.83	38974.55
646.182	38916.93
646.535	38872.41
646.888	38993.31
647.24	38876.7
647.593	39014.33
647.945	38911.96
648.298	38802.36
648.65	38591.97
649.002	38343.84
649.355	38117.63
649.707	38128.02
650.059	38230.85
650.411	38712.41
650.763	38908.12
651.115	39361.21
651.467	39312.17
651.819	39256.81
652.171	39243.02
652.523	39113.76
652.875	39105.17
653.227	38997.15
653.578	39358.95
653.93	39169.8
654.282	39189.92
654.633	38989.92
654.985	38996.93
655.337	38961.22
655.688	39092.29
656.039	39171.16
656.391	38794.22
656.742	38895.23
657.094	38978.4
657.445	38926.65
657.796	38907.44
658.147	38799.87
658.498	38935.46
658.849	38994.67
659.2	38700.44
659.551	38827.67
659.902	39016.14
660.253	38835.12
660.604	38896.36
660.955	38831.06
661.306	39073.08
661.656	38962.58
662.007	38942.92
662.358	38969.13
662.708	38965.51
663.059	38922.8
663.409	38683.04
663.76	38970.03
664.11	38997.6
664.461	39051.16
664.811	38937.04
665.161	39018.62
665.511	38952.63
665.862	38994.67
666.212	39027.89
666.562	38977.49
666.912	38973.88
667.262	38763.03
667.612	38848.46
667.962	38888
668.312	38930.04
668.662	39056.81
669.011	38996.25
669.361	39019.75
669.711	38924.84
670.06	38858.17
670.41	38659.08
670.76	38803.26
671.109	38968
671.459	38776.37
671.808	38767.1
672.157	38823.6
672.507	38653.43
672.856	38626.54
673.205	38662.02
673.554	38829.93
673.904	38659.99
674.253	39053.42
674.602	38835.57
674.951	38203.28
675.3	37987.01
675.649	38602.36
675.998	38591.74
676.346	38792.64
676.695	38812.75
677.044	38466.55
677.393	38541.8
677.741	38532.53
678.09	38357.4
678.438	38298.64
678.787	38418.41
679.135	38452.08
679.484	38144.97
679.832	38201.69
680.181	38307.23
680.529	38277.4
680.877	38140.23
681.225	38038.99
681.573	38345.64
681.922	38109.72
682.27	38001.92
682.618	38001.92
682.966	37766.9
683.314	37881.93
683.661	37858.65
684.009	37750.63
684.357	37581.14
684.705	37621.6
685.053	37524.87
685.4	37338.21
685.748	37202.85
686.095	37316.97
686.443	37013.02
686.79	37041.5
687.138	37034.94
687.485	36936.19
687.832	36758.12
688.18	36771.45
688.527	36504.79
688.874	36626.14
689.221	36600.61
689.568	36236.1
689.915	36244
690.262	36383.89
690.609	36279.03
690.956	36157
691.303	36089.43
691.65	35815.54
691.997	35808.54
692.344	35742.1
692.69	35520.63
693.037	35549.11
693.383	35301.43
693.73	35348.21
694.077	35137.82
694.423	35052.17
694.769	35036.35
695.116	34921.1
695.462	34610.6
695.808	34568.12
696.155	34642.01
696.501	34395.47
696.847	34446.09
697.193	34127.68
697.539	34130.39
697.885	33907.12
698.231	33793.45
698.577	33818.08
698.923	33856.95
699.269	33516.17
699.614	33480.69
699.96	33154.59
700.306	33170.87
700.651	33087.48
700.997	32926.58
701.342	32892
701.688	32974.94
702.033	32726.58
702.379	32716.87
702.724	32458.12
703.069	32649.52
703.415	32263.54
703.76	32232.13
704.105	32055.19
704.45	32030.33
704.795	31912.82
705.14	31667.18
705.485	31794.18
705.83	31588.53
706.175	31729.77
706.52	31601.87
706.865	31563.68
707.209	31349.9
707.554	31389.44
707.899	31260.18
708.243	31090.69
708.588	30977.93
708.932	30867.42
709.277	31019.28
709.621	30756.47
709.966	30502.91
710.31	30650.25
710.654	30391.73
710.998	30311.05
711.342	30330.49
711.687	30193.09
712.031	30206.2
712.375	30050.04
712.719	29935.7
713.063	30030.61
713.407	30081.68
713.75	29967.79
714.094	29852.53
714.438	29713.1
714.782	29819.99
715.125	29662.93
715.469	29757.17
715.812	29534.35
716.156	29482.37
716.499	29476.27
716.843	29538.64
717.186	29295.94
717.53	29433.56
717.873	29432.21
718.216	29321.7
718.559	29084.64
718.902	28978.88
719.246	29166.45
719.589	28979.11
719.932	28899.34
720.275	28810.75
720.617	28870.87
720.96	28847.14
721.303	28973.24
721.646	28886.91
721.989	28721.72
722.331	28898.21
722.674	28702.28
723.016	28637.2
723.359	28512.23
723.701	28607.37
724.044	28558.11
724.386	28347.04
724.729	28408.5
725.071	28482.63
725.413	28579.35
725.755	28362.18
726.097	28421.84
726.439	28288.06
726.782	28272.91
727.124	28406.24
727.465	28428.62
727.807	28101.39
728.149	28356.08
728.491	28231.79
728.833	28219.13
729.175	28069.53
729.516	28129.64
729.858	28105.91
730.199	28288.28
730.541	28213.03
730.882	28143.88
731.224	28164.67
731.565	28061.62
731.906	28043.77
732.248	28165.57
732.589	27891.23
732.93	28039.47
733.271	27959.25
733.612	27993.15
733.953	28113.82
734.294	28047.38
734.635	27901.4
734.976	28091.9
735.317	27863.89
735.658	28040.83
735.999	27833.15
736.339	28062.75
736.68	28040.38
737.021	28031.34
737.361	27905.01
737.702	28095.07
738.042	28088.96
738.383	28049.42
738.723	28116.53
739.063	28084.67
739.404	28145.91
739.744	28076.99
740.084	27995.18
740.424	28122.86
740.764	28066.37
741.104	28255.29
741.444	28113.37
741.784	27949.53
742.124	28239.24
742.464	28179.36
742.804	28281.73
743.143	28173.03
743.483	28298.68
743.823	28128.51
744.162	28268.62
744.502	28299.58
744.841	28078.34
745.181	28287.6
745.52	28409.86
745.86	28446.47
746.199	28421.16
746.538	28380.93
746.877	28734.37
747.216	28577.99
747.556	28589.97
747.895	28688.5
748.234	28799.45
748.573	28754.71
748.911	28683.53
749.25	28843.75
749.589	28741.6
749.928	28881.03
750.267	28999
750.605	28785.44
750.944	29010.3
751.283	29010.75
751.621	29135.72
751.96	29081.71
752.298	29183.4
752.636	29176.62
752.975	29215.94
753.313	29244.19
753.651	29551.98
753.989	29360.12
754.327	29418.42
754.666	29315.83
755.004	29524.41
755.342	29556.95
755.679	29615.93
756.017	29547.91
756.355	29612.77
756.693	29704.06
757.031	29822.48
757.368	29735.25
757.706	29796.94
758.044	29900.67
758.381	29828.35
758.719	29853.21
759.056	29965.3
759.394	29898.41
759.731	29819.77
760.068	29862.93
760.405	30008.69
760.743	29874.68
761.08	29942.02
761.417	29897.96
761.754	29909.48
762.091	29848.47
762.428	29854.79
762.765	29810.95
763.102	29937.73
763.438	29859.99
763.775	29667.23
764.112	29804.85
764.449	29733.22
764.785	29735.25
765.122	29650.05
765.458	29654.8
765.795	29506.55
766.131	29637.85
766.467	29743.38
766.804	29391.76
767.14	29348.37
767.476	29416.39
767.812	29439.66
768.148	29438.99
768.485	29340.68
768.821	29238.54
769.157	29173
769.492	29137.75
769.828	29118.54
770.164	28984.08
770.5	28943.63
770.836	28996.06
771.171	28769.4
771.507	28730.08
771.842	28547.26
772.178	28560.36
772.513	28656.18
772.849	28512.46
773.184	28425.91
773.519	28494.15
773.855	28199.47
774.19	28237.44
774.525	28036.54
774.86	28151.79
775.195	28017.33
775.53	27932.58
775.865	27833.6
776.2	27747.05
776.535	27613.05
776.87	27422.99
777.205	27485.14
777.539	27336.22
777.874	27464.8
778.209	27193.4
778.543	27179.38
778.878	26993.4
779.212	26981.88
779.547	26813.07
779.881	26771.49
780.215	26694.88
780.55	26725.84
780.884	26534.2
781.218	26577.14
781.552	26406.52
781.886	26258.96
782.22	26039.3
782.554	26067.55
782.888	25915.24
783.222	25894.45
783.556	25707.33
783.889	25734
784.223	25514.57
784.557	25525.87
784.89	25587.34
785.224	25361.8
785.557	25205.42
785.891	25117.97
786.224	25082.26
786.558	25148.25
786.891	24839.33
787.224	24733.8
787.557	24835.04
787.891	24707.58
788.224	24657.87
788.557	24528.38
788.89	24423.07
789.223	24492.45
789.556	24261.04
789.888	24311.66
790.221	24224.21
790.554	24014.95
790.887	23952.35
791.219	23978.11
791.552	23869.41
791.884	23836.42
792.217	23629.87
792.549	23599.82
792.882	23496.77
793.214	23353.27
793.546	23428.3
793.879	23278.24
794.211	23121.86
794.543	23198.92
794.875	23046.16
795.207	23068.08
795.539	22913.28
795.871	22999.38
796.203	22750.35
796.535	22734.3
796.867	22682.1
797.198	22538.83
797.53	22537.92
797.862	22345.39
798.193	22460.41
798.525	22259.06
798.856	22413.41
799.188	21989.69
799.519	21982.01
799.85	21948.11
800.182	21934.55
800.513	22064.49
800.844	21675.57
801.175	21942.69
801.506	21900.88
801.837	21658.4
802.168	21552.64
802.499	21669.92
802.83	21448.91
803.161	21313.55
803.491	21381.12
803.822	21457.05
804.153	21237.39
804.483	21029.04
804.814	20951.53
805.145	21092.31
805.475	20995.82
805.805	20979.77
806.136	20928.48
806.466	20884.18
806.796	20724.41
807.126	20584.08
807.457	20685.09
807.787	20668.59
808.117	20575.26
808.447	20510.63
808.777	20561.71
809.107	20335.27
809.436	20273.35
809.766	20258.44
810.096	20283.97
810.426	20156.29
810.755	20292.33
811.085	20029.74
811.414	20152.45
811.744	20014.37
812.073	20049.85
812.403	19960.14
812.732	19803.98
813.061	19982.06
813.39	19822.06
813.719	19711.56
814.049	19806.02
814.378	19712.46
814.707	19696.87
815.036	19679.69
815.365	19563.99
815.693	19450.77
816.022	19424.33
816.351	19369.87
816.68	19288.07
817.008	19349.08
817.337	19124.68
817.665	19197.22
817.994	19186.83
818.322	19206.49
818.651	19105.7
818.979	19034.06
819.307	19056.43
819.636	18993.61
819.964	18862.09
820.292	18939.15
820.62	18908.19
820.948	18836.33
821.276	19011.24
821.604	18966.04
821.932	18998.58
822.259	18811.92
822.587	18888.75
822.915	18918.13
823.243	18868.64
823.57	18761.3
823.898	18987.51
824.225	18838.13
824.553	18809.66
824.88	18869.09
825.207	18888.53
825.535	18797.23
825.862	18792.03
826.189	18872.26
826.516	18947.74
826.843	18976.21
827.17	18933.05
827.497	18911.8
827.824	18852.82
828.151	18847.4
828.478	18883.33
828.805	18958.13
829.131	18907.51
829.458	18943.22
829.785	18752.94
830.111	18777.35
830.438	18832.71
830.764	18912.48
831.09	18921.75
831.417	18847.17
831.743	18944.12
832.069	18931.01
832.395	18928.98
832.722	18858.93
833.048	18730.11
833.374	18816.21
833.7	18783.67
834.026	18861.64
834.351	18820.96
834.677	18834.52
835.003	18675.65
835.329	18808.76
835.654	18719.95
835.98	18619.16
836.306	18860.05
836.631	18725.6
836.956	18756.1
837.282	18677.46
837.607	18660.51
837.932	18680.62
838.258	18599.95
838.583	18545.94
838.908	18425.72
839.233	18566.96
839.558	18473.17
839.883	18497.35
840.208	18173.75
840.533	18334.65
840.858	18421.87
841.182	18362.44
841.507	18338.71
841.832	18140.75
842.156	18275.89
842.481	18233.63
842.805	18140.75
843.13	18012.62
843.454	18087.87
843.778	17995.67
844.103	18125.16
844.427	17939.85
844.751	17957.03
845.075	17905.5
845.399	17844.26
845.723	17717.26
846.047	17782.12
846.371	17585.06
846.695	17609.47
847.019	17552.29
847.343	17495.57
847.666	17483.14
847.99	17266.88
848.313	17277.5
848.637	17248.8
848.96	17165.64
849.284	17216.48
849.607	17029.82
849.931	17074.34
850.254	16840.9
850.577	16828.7
850.9	16672.09
851.223	16669.38
851.546	16656.95
851.869	16513.68
852.192	16526.11
852.515	16402.49
852.838	16387.58
853.161	16330.86
853.483	16278.65
853.806	16242.04
854.129	16132.67
854.451	16103.07
854.774	16027.81
855.096	16038.66
855.419	15920.7
855.741	15899.91
856.063	15757.76
856.385	15825.11
856.708	15650.87
857.03	15639.35
857.352	15720.25
857.674	15703.08
857.996	15503.31
858.318	15407.26
858.64	15471.22
858.961	15388.73
859.283	15297.66
859.605	15399.35
859.926	15346.48
860.248	15222.64
860.57	15190.55
860.891	15168.85
861.212	15136.09
861.534	15098.57
861.855	15009.76
862.176	14980.38
862.498	14998.69
862.819	15020.61
863.14	14944.45
863.461	14891.12
863.782	14780.16
864.103	14819.03
864.424	14814.51
864.745	14911.46
865.065	14743.1
865.386	14725.25
865.707	14730.9
866.027	14722.54
866.348	14683.22
866.668	14583.56
866.989	14600.51
867.309	14509.43
867.63	14498.59
867.95	14611.13
868.27	14407.97
868.59	14548.08
868.91	14482.32
869.23	14480.74
869.55	14382.88
869.87	14435.76
870.19	14357.8
870.51	14379.27
870.83	14294.3
871.15	14299.5
871.469	14242.55
871.789	14308.08
872.109	14195.32
872.428	14189.22
872.748	14154.42
873.067	14233.96
873.386	14196.67
873.706	14108.54
874.025	14060.63
874.344	14017.47
874.663	14057.02
874.982	13977.7
875.301	13988.54
875.62	13913.07
875.939	13925.04
876.258	13955.78
876.577	13839.85
876.896	13833.75
877.214	13834.2
877.533	13893.41
877.852	13870.36
878.17	13875.78
878.489	13864.25
878.807	13738.61
879.125	13824.48
879.444	13716.24
879.762	13671.49
880.08	13787.42
880.398	13617.93
880.716	13750.36
881.034	13558.27
881.352	13637.82
881.67	13577.03
881.988	13536.13
882.306	13462.68
882.624	13438.05
882.941	13429.01
883.259	13403.7
883.577	13355.57
883.894	13377.71
884.212	13301.33
884.529	13357.6
884.846	13219.98
885.164	13149.92
885.481	13106.76
885.798	13149.24
886.115	13050.72
886.432	13060.21
886.75	13048.46
887.067	13009.81
887.383	12997.84
887.7	12962.58
888.017	12857.95
888.334	12928.91
888.651	12870.38
888.967	12843.49
889.284	12777.28
889.6	12693.66
889.917	12681.69
890.233	12683.27
890.55	12720.33
890.866	12557.62
891.182	12719.88
891.498	12587.45
891.815	12475.59
892.131	12421.35
892.447	12427.68
892.763	12483.95
893.079	12437.85
893.395	12405.08
893.71	12358.98
894.026	12282.37
894.342	12221.13
894.657	12194.47
894.973	12170.51
895.289	12136.39
895.604	12104.53
895.92	12062.95
896.235	12058.65
896.55	11942.72
896.865	11923.74
897.181	11873.57
897.496	11834.25
897.811	11783.86
898.126	11721.71
898.441	11683.29
898.756	11737.76
899.071	11665.44
899.386	11635.61
899.7	11580.47
900.015	11485.56
900.33	11457.31
900.644	11446.24
900.959	11428.84
901.273	11306.81
901.588	11343.42
901.902	11284.43
902.216	11206.7
902.531	11222.29
902.845	11151.33
903.159	11076.3
903.473	11077.21
903.787	10985.91
904.101	11003.76
904.415	11038.34
904.729	11024.1
905.042	10863.43
905.356	10849.42
905.67	10841.28
905.984	10821.62
906.297	10719.48
906.611	10674.06
906.924	10669.99
907.237	10624.57
907.551	10598.58
907.864	10565.81
908.177	10568.75
908.491	10499.37
908.804	10390.9
909.117	10411.24
909.43	10305.7
909.743	10309.09
910.056	10249.89
910.368	10212.15
910.681	10141.64
910.994	10161.75
911.307	10142.09
911.619	10024.36
911.932	10013.51
912.244	9913.85
912.557	9917.24
912.869	9839.95
913.181	9830.01
913.494	9819.39
913.806	9725.61
914.118	9659.39
914.43	9706.4
914.742	9634.76
915.054	9640.64
915.366	9585.5
915.678	9578.94
915.99	9458.04
916.302	9408.78
916.613	9405.84
916.925	9356.58
917.236	9343.92
917.548	9361.32
917.859	9252.62
918.171	9192.51
918.482	9113.19
918.794	9067.32
919.105	9053.31
919.416	9033.87
919.727	8979.18
920.038	8992.97
920.349	8917.49
920.66	8852.63
920.971	8841.56
921.282	8807.44
921.593	8821
921.903	8742.58
922.214	8682.92
922.525	8719.98
922.835	8646.09
923.146	8566.99
923.456	8581.46
923.767	8530.61
924.077	8493.1
924.387	8516.15
924.697	8458.97
925.008	8410.61
925.318	8390.73
925.628	8313.44
925.938	8295.36
926.248	8298.3
926.558	8210.84
926.867	8175.36
927.177	8148.25
927.487	8096.5
927.796	8039.1
928.106	8033.9
928.416	8000.23
928.725	7931.53
929.034	7915.94
929.344	7874.81
929.653	7903.73
929.962	7851.3
930.271	7786.67
930.581	7766.79
930.89	7775.37
931.199	7658.77
931.508	7621.71
931.817	7601.82
932.125	7613.12
932.434	7583.52
932.743	7535.15
933.051	7478.43
933.36	7455.61
933.669	7440.92
933.977	7447.02
934.286	7411.77
934.594	7335.61
934.902	7307.36
935.21	7281.15
935.519	7302.84
935.827	7257.65
936.135	7186.46
936.443	7114.15
936.751	7140.14
937.059	7115.28
937.367	7022.63
937.674	7126.58
937.982	6996.41
938.29	7004.55
938.597	6962.97
938.905	6844.1
939.213	6905.34
939.52	6879.58
939.827	6898.34
940.135	6799.81
940.442	6790.54
940.749	6709.19
941.056	6697.21
941.363	6683.65
941.67	6689.98
941.977	6602.75
942.284	6584.45
942.591	6660.6
942.898	6532.47
943.205	6542.86
943.511	6516.88
943.818	6504
944.125	6428.52
944.431	6439.59
944.738	6374.51
945.044	6359.14
945.35	6333.38
945.657	6292.25
945.963	6288.41
946.269	6245.02
946.575	6198.69
946.881	6139.71
947.187	6151.69
947.493	6151.91
947.799	6115.98
948.105	6075.53
948.41	6017.68
948.716	6025.14
949.022	6032.6
949.327	5985.37
949.633	5929.1
949.938	5924.35
950.244	5923.45
950.549	5825.82
950.854	5823.56
951.16	5851.58
951.465	5768.65
951.77	5751.93
952.075	5701.08
952.38	5673.51
952.685	5678.25
952.99	5691.81
953.294	5661.76
953.599	5608.43
953.904	5545.38
954.209	5594.19
954.513	5557.13
954.818	5490.69
955.122	5524.36
955.426	5475.1
955.731	5495.89
956.035	5437.36
956.339	5415.66
956.643	5332.95
956.948	5348.09
957.252	5304.93
957.556	5273.52
957.86	5242.79
958.163	5298.6
958.467	5254.31
958.771	5259.96
959.075	5218.15
959.378	5166.4
959.682	5178.38
959.985	5122.56
960.289	5097.93
960.592	5076.91
960.896	5076.69
961.199	5044.6
961.502	5055.22
961.805	4974.09
962.108	4963.7
962.411	4978.61
962.714	4937.48
963.017	4921.66
963.32	4896.35
963.623	4859.75
963.926	4913.3
964.228	4801.89
964.531	4803.93
964.833	4765.96
965.136	4744.49
965.438	4695
965.741	4722.12
966.043	4729.13
966.345	4724.16
966.648	4673.08
966.95	4684.38
967.252	4626.53
967.554	4579.53
967.856	4600.54
968.158	4563.93
968.46	4540.43
968.761	4516.03
969.063	4534.78
969.365	4501.56
969.666	4509.7
969.968	4392.64
970.269	4409.36
970.571	4450.72
970.872	4413.88
971.174	4355.35
971.475	4363.26
971.776	4322.13
972.077	4323.49
972.378	4320.32
972.679	4286.43
972.98	4249.59
973.281	4218.41
973.582	4227.22
973.883	4190.16
974.183	4154.9
974.484	4147.9
974.785	4120.33
975.085	4123.95
975.386	4134.11
975.686	4051.63
975.986	4076.71
976.287	4045.98
976.587	4018.19
976.887	4013.89
977.187	4055.7
977.487	3997.17
977.787	4004.63
978.087	3971.18
978.387	3929.37
978.687	3917.85
978.987	3913.56
979.286	3885.99
979.586	3913.33
979.885	3848.7
980.185	3831.75
980.484	3815.7
980.784	3792.2
981.083	3811.19
981.382	3722.15
981.682	3742.03
981.981	3733.45
982.28	3742.71
982.579	3711.3
982.878	3725.99
983.177	3709.27
983.475	3650.51
983.774	3603.28
984.073	3605.54
984.372	3571.64
984.67	3614.81
984.969	3563.73
985.267	3554.24
985.566	3564.86
985.864	3498.65
986.162	3492.78
986.461	3451.87
986.759	3468.82
987.057	3431.76
987.355	3420.01
987.653	3442.83
987.951	3422.72
988.249	3401.48
988.547	3387.47
988.844	3368.26
989.142	3336.85
989.44	3322.16
989.737	3337.75
990.035	3263.4
990.332	3314.02
990.63	3243.52
990.927	3222.73
991.224	3247.58
991.521	3253.46
991.819	3192.9
992.116	3221.82
992.413	3205.78
992.71	3122.16
993.006	3176.4
993.303	3158.32
993.6	3118.55
993.897	3102.96
994.193	3083.07
994.49	3072.45
994.787	3050.3
995.083	3016.18
995.379	3013.01
995.676	2988.83
995.972	2993.13
996.268	2990.87
996.565	2953.35
996.861	2931.43
997.157	2945.67
997.453	2917.88
997.749	2930.98
998.044	2859.12
998.34	2874.49
998.636	2835.17
998.932	2819.12
999.227	2811.89
999.523	2829.97
999.818	2808.95
1000.114	2803.08
1000.409	2756.75
1000.704	2724.66
1001	2709.52
1001.295	2700.71
1001.59	2729.86
1001.885	2715.17
1002.18	2660.25
1002.475	2669.29
1002.77	2662.06
1003.065	2636.07
1003.359	2586.81
1003.654	2629.07
1003.949	2620.26
1004.243	2586.13
1004.538	2567.83
1004.832	2582.52
1005.127	2551.33
1005.421	2510.88
1005.715	2507.26
1006.009	2500.94
1006.304	2460.71
1006.598	2450.32
1006.892	2466.81
1007.186	2425.46
1007.48	2427.04
1007.773	2412.13
1008.067	2412.35
1008.361	2388.4
1008.655	2359.92
1008.948	2351.56
1009.242	2343.65
1009.535	2318.79
1009.829	2333.26
1010.122	2291.9
1010.415	2306.37
1010.708	2255.07
1011.001	2259.59
1011.295	2252.81
1011.588	2248.51
1011.881	2225.92
1012.173	2189.98
1012.466	2205.35
1012.759	2161.28
1013.052	2177.56
1013.344	2162.87
1013.637	2149.08
1013.93	2089.65
1014.222	2113.83
1014.514	2121.06
1014.807	2081.97
1015.099	2082.42
1015.391	2085.58
1015.683	2038.35
1015.976	2054.62
1016.268	2043.55
1016.56	2026.83
1016.851	1984.34
1017.143	1982.31
1017.435	1949.54
1017.727	1991.12
1018.018	1965.81
1018.31	1958.58
1018.602	1924.46
1018.893	1921.52
1019.185	1904.57
1019.476	1899.82
1019.767	1878.81
1020.058	1858.47
1020.35	1827.96
1020.641	1826.15
1020.932	1808.75
1021.223	1826.83
1021.514	1811.24
1021.804	1774.18
1022.095	1775.98
1022.386	1794.06
1022.677	1758.13
1022.967	1704.57
1023.258	1728.08
1023.548	1731.69
1023.839	1731.01
1024.129	1733.73
1024.419	1677.91
1024.709	1677.23
1025	1632.26
1025.29	1647.85
1025.58	1664.35
1025.87	1599.72
1026.16	1602.88
1026.449	1596.78
1026.739	1624.8
1027.029	1610.56
1027.319	1607.18
1027.608	1545.48
1027.898	1546.61
1028.187	1546.39
1028.477	1554.97
1028.766	1549.32
1029.055	1483.11
1029.344	1502.77
1029.634	1467.07
1029.923	1479.49
1030.212	1484.92
1030.501	1489.89
1030.79	1406.95
1031.078	1415.99
1031.367	1416.22
1031.656	1445.15
1031.945	1432.04
1032.233	1432.26
1032.522	1379.16
1032.81	1382.77
1033.099	1353.85
1033.387	1351.36
1033.675	1334.64
1033.963	1323.57
1034.251	1349.78
1034.54	1328.99
1034.828	1331.93
1035.116	1300.74
1035.403	1302.55
1035.691	1316.79
1035.979	1310.23
1036.267	1298.03
1036.554	1274.3
1036.842	1269.78
1037.129	1270.69
1037.417	1253.06
1037.704	1257.81
1037.992	1246.73
1038.279	1221.42
1038.566	1199.73
1038.853	1199.73
1039.14	1199.73
