Data from 383_FLMS001491_005.txt Node
Date: Thu Apr 19 15:42:36 BST 2018
User: hsy
Spectrometer: FLMS00149
Trigger mode: 0
Integration Time (sec): 1.000000E-2
Scans to average: 10
Electric dark correction enabled: true
Nonlinearity correction enabled: false
Boxcar width: 0
XAxis mode: Wavelengths
Number of Pixels in Spectrum: 2048
>>>>>Begin Spectral Data<<<<<
341.393	-6.37
341.776	-6.37
342.16	-6.37
342.543	-54.5
342.927	-66.26
343.31	-68.74
343.693	-53.15
344.077	-69.42
344.46	-60.15
344.843	-31.91
345.226	-56.99
345.61	-45.46
345.993	-15.18
346.376	-11.57
346.759	7.19
347.142	18.04
347.525	61.2
347.908	57.58
348.291	78.83
348.674	87.19
349.057	102.55
349.44	120.86
349.823	149.78
350.206	169.67
350.588	228.2
350.971	249.67
351.354	259.84
351.737	273.17
352.119	286.5
352.502	287.86
352.884	314.53
353.267	314.07
353.65	319.27
354.032	328.76
354.414	332.15
354.797	339.61
355.179	344.58
355.562	351.81
355.944	355.2
356.326	363.56
356.709	358.59
357.091	406.95
357.473	382.09
357.855	369.21
358.238	381.19
358.62	368.54
359.002	387.07
359.384	375.54
359.766	386.61
360.148	382.55
360.53	362.21
360.912	381.42
361.294	373.06
361.676	384.13
362.057	377.12
362.439	376.22
362.821	378.7
363.203	380.51
363.584	380.06
363.966	367.63
364.348	367.18
364.729	384.58
365.111	363.34
365.493	367.63
365.874	368.31
366.256	377.57
366.637	369.21
367.019	365.6
367.4	371.7
367.781	367.63
368.163	367.86
368.544	363.79
368.925	364.92
369.306	359.5
369.688	375.54
370.069	359.04
370.45	387.97
370.831	379.61
371.212	363.79
371.593	367.63
371.974	380.29
372.355	376.22
372.736	364.47
373.117	375.54
373.498	372.6
373.879	388.65
374.26	373.73
374.641	370.34
375.021	364.92
375.402	380.96
375.783	366.05
376.163	392.04
376.544	395.88
376.925	387.07
377.305	389.55
377.686	397.91
378.066	416.22
378.447	401.75
378.827	412.6
379.208	411.7
379.588	410.57
379.968	432.49
380.349	411.92
380.729	429.55
381.109	410.34
381.489	419.16
381.87	432.94
382.25	420.51
382.63	424.35
383.01	445.6
383.39	458.02
383.77	447.86
384.15	426.39
384.53	445.14
384.91	425.26
385.29	453.05
385.67	450.79
386.049	466.16
386.429	442.21
386.809	465.93
387.189	446.27
387.568	465.93
387.948	466.16
388.328	472.26
388.707	461.64
389.087	491.24
389.466	509.77
389.846	485.37
390.225	506.84
390.605	483.79
390.984	492.83
391.363	495.31
391.743	493.96
392.122	500.28
392.501	501.41
392.881	505.03
393.26	494.86
393.639	512.94
394.018	519.04
394.397	530.34
394.776	502.54
395.155	509.1
395.534	511.58
395.913	539.38
396.292	556.55
396.671	529.89
397.05	534.41
397.429	558.81
397.808	547.29
398.186	540.73
398.565	544.8
398.944	539.83
399.323	556.55
399.701	573.28
400.08	554.75
400.458	563.33
400.837	570.11
401.215	578.25
401.594	592.48
401.972	575.08
402.351	606.5
402.729	593.61
403.107	596.1
403.486	610.11
403.864	605.82
404.242	602.2
404.62	613.27
404.999	607.17
405.377	612.37
405.755	634.07
406.133	652.37
406.511	629.09
406.889	658.47
407.267	639.26
407.645	658.47
408.023	664.8
408.401	670.67
408.779	681.52
409.156	692.82
409.534	684.23
409.912	719.71
410.29	692.82
410.667	690.79
411.045	716.55
411.422	735.08
411.8	704.12
412.178	733.05
412.555	730.56
412.933	765.14
413.31	765.59
413.687	779.37
414.065	765.14
414.442	771.91
414.819	787.73
415.197	800.39
415.574	780.5
415.951	795.42
416.328	801.74
416.705	812.82
417.082	805.36
417.46	827.51
417.837	848.3
418.214	857.11
418.591	860.5
418.967	883.78
419.344	855.08
419.721	869.31
420.098	875.19
420.475	865.25
420.852	906.15
421.228	905.7
421.605	885.36
421.982	898.01
422.358	905.24
422.735	909.76
423.111	919.48
423.488	961.29
423.864	950.44
424.241	939.59
424.617	962.64
424.994	980.5
425.37	978.46
425.746	971.68
426.123	990.44
426.499	1017.56
426.875	973.49
427.251	1026.15
427.627	1030.66
428.003	1050.55
428.379	1038.57
428.756	1048.29
429.132	1066.37
429.507	1079.93
429.883	1086.71
430.259	1119.93
430.635	1134.39
431.011	1131.23
431.387	1137.78
431.763	1125.8
432.138	1160.15
432.514	1180.27
432.89	1166.03
433.265	1223.65
433.641	1217.1
434.016	1225.24
434.392	1244.67
434.767	1261.17
435.143	1250.55
435.518	1298
435.894	1293.93
436.269	1309.98
436.644	1315.4
437.02	1331.45
437.395	1334.61
437.77	1360.15
438.145	1379.81
438.52	1354.27
438.895	1406.25
439.271	1379.13
439.646	1449.64
440.021	1418.68
440.395	1439.02
440.77	1396.98
441.145	1442.18
441.52	1435.63
441.895	1432.01
442.27	1511.33
442.645	1477.66
443.019	1487.15
443.394	1497.77
443.769	1512.69
444.143	1488.96
444.518	1526.02
444.892	1505.23
445.267	1547.49
445.641	1531.89
446.016	1551.56
446.39	1565.57
446.764	1598.33
447.139	1572.8
447.513	1594.27
447.887	1597.2
448.262	1628.16
448.636	1615.96
449.01	1655.73
449.384	1623.42
449.758	1646.69
450.132	1673.36
450.506	1696.18
450.88	1706.13
451.254	1718.33
451.628	1722.85
452.002	1737.99
452.376	1772.57
452.75	1788.16
453.123	1820.25
453.497	1829.74
453.871	1837.65
454.244	1896.18
454.618	1909.51
454.992	1913.58
455.365	1932.11
455.739	1914.71
456.112	1968.04
456.486	1990.64
456.859	1998.1
457.232	2047.14
457.606	2055.27
457.979	2097.98
458.352	2136.85
458.725	2175.27
459.099	2147.92
459.472	2215.27
459.845	2224.53
460.218	2239.67
460.591	2269.73
460.964	2287.58
461.337	2309.5
461.71	2353.57
462.083	2408.26
462.456	2377.3
462.829	2440.35
463.201	2445.09
463.574	2480.12
463.947	2479.67
464.32	2537.07
464.692	2529.38
465.065	2537.52
465.438	2643.96
465.81	2620
466.183	2660.23
466.555	2681.24
466.928	2725.99
467.3	2731.41
467.672	2785.2
468.045	2844.63
468.417	2864.52
468.789	2869.71
469.161	2897.28
469.534	2942.03
469.906	2998.97
470.278	3008.24
470.65	3044.85
471.022	3086.88
471.394	3113.32
471.766	3172.08
472.138	3198.52
472.51	3279.65
472.882	3340.43
473.253	3359.87
473.625	3387.21
473.997	3466.31
474.369	3480.77
474.74	3550.37
475.112	3626.75
475.484	3647.09
475.855	3761.67
476.227	3777.26
476.598	3892.51
476.97	3913.08
477.341	3997.82
477.713	4107.65
478.084	4092.05
478.455	4223.8
478.827	4231.03
479.198	4304.7
479.569	4376.57
479.94	4492.72
480.311	4529.1
480.682	4665.6
481.053	4716.44
481.424	4848.64
481.795	4930.45
482.166	5021.07
482.537	5059.03
482.908	5161.4
483.279	5237.33
483.65	5367.05
484.021	5486.59
484.391	5595.74
484.762	5629.64
485.133	5647.72
485.503	5819.01
485.874	5942.85
486.244	6029.18
486.615	6149.85
486.985	6270.53
487.356	6371.54
487.726	6492.89
488.097	6699.44
488.467	6725.88
488.837	6891.75
489.207	6946.67
489.578	7111.18
489.948	7254.91
490.318	7349.82
490.688	7377.62
491.058	7596.14
491.428	7720.66
491.798	7895.12
492.168	8028.45
492.538	8186.41
492.908	8282.23
493.278	8490.81
493.648	8529.45
494.017	8796.11
494.387	8912.27
494.757	9022.55
495.126	9152.71
495.496	9333.72
495.866	9485.81
496.235	9576.65
496.605	9875.4
496.974	9958.79
497.344	10079.24
497.713	10280.14
498.082	10385.45
498.452	10594.03
498.821	10728.94
499.19	10912.67
499.559	11084.19
499.928	11204.18
500.298	11440.33
500.667	11653.66
501.036	11737.73
501.405	11944.05
501.774	12075.12
502.143	12330.03
502.512	12549.91
502.88	12753.52
503.249	12849.34
503.618	13048.88
503.987	13263.34
504.356	13439.15
504.724	13551.47
505.093	13778.35
505.462	13922.3
505.83	14141.28
506.199	14369.3
506.567	14723.64
506.936	14819.45
507.304	15076.4
507.672	15247.24
508.041	15318.2
508.409	15581.24
508.777	15841.8
509.145	16119.08
509.514	16197.72
509.882	16436.36
510.25	16559.75
510.618	16827.76
510.986	16908.89
511.354	17186.85
511.722	17442.66
512.09	17639.72
512.458	17689.89
512.826	17926.72
513.193	18191.34
513.561	18326.71
513.929	18536.87
514.297	18750.43
514.664	18945
515.032	19161.26
515.4	19345.21
515.767	19440.12
516.135	19692.32
516.502	19736.84
516.869	20085.08
517.237	20272.42
517.604	20193.78
517.972	20553.77
518.339	20691.39
518.706	20856.81
519.073	21048.22
519.44	21194.2
519.808	21480.75
520.175	21545.61
520.542	21918.93
520.909	22029.66
521.276	22033.5
521.643	22391.23
522.009	22563.88
522.376	22899.24
522.743	23031.22
523.11	23356.41
523.477	23484.09
523.843	23555.27
524.21	23981.7
524.577	24131.53
524.943	24225.31
525.31	24300.11
525.676	24698.52
526.043	24888.79
526.409	25048.79
526.776	25371.04
527.142	25454.66
527.508	25624.37
527.874	25890.12
528.241	25974.19
528.607	26134.19
528.973	26526.04
529.339	26513.38
529.705	26802.87
530.071	26934.84
530.437	27069.3
530.803	27337.09
531.169	27406.02
531.535	27497.99
531.901	27680.36
532.267	27694.37
532.632	27998.54
532.998	28066.34
533.364	28320.79
533.73	28274.24
534.095	28574.12
534.461	28523.73
534.826	28842.14
535.192	28849.37
535.557	29042.13
535.923	29015.01
536.288	29194.9
536.653	29364.16
537.019	29152.64
537.384	29486.64
537.749	29510.82
538.114	29603.47
538.479	29647.54
538.845	29690.48
539.21	29726.41
539.575	29816.8
539.94	30005.27
540.305	30096.34
540.67	30044.59
541.034	30148.32
541.399	30214.3
541.764	30308.77
542.129	30464.47
542.494	30584.46
542.858	30621.3
543.223	30523.9
543.587	30821.29
543.952	30803.89
544.316	30847.73
544.681	30797.11
545.045	31055.19
545.41	31015.41
545.774	31081.85
546.138	31145.58
546.503	31235.75
546.867	31299.7
547.231	31464.89
547.595	31531.11
547.959	31435.74
548.324	31675.73
548.688	31635.28
549.052	31700.14
549.416	31708.05
549.779	31629.63
550.143	31803.19
550.507	31973.81
550.871	32192.33
551.235	32126.34
551.599	32414.47
551.962	32366.11
552.326	32365.89
552.689	32453.57
553.053	32350.75
553.417	32512.55
553.78	32916.61
554.143	32791.86
554.507	32816.95
554.87	32915.25
555.234	33198.86
555.597	33135.58
555.96	33177.84
556.323	33314.11
556.686	33409.02
557.05	33653.31
557.413	33599.3
557.776	33665.74
558.139	33921.78
558.502	33983.24
558.865	34003.58
559.228	34281.09
559.59	34269.79
559.953	34468.43
560.316	34796.78
560.679	34700.29
561.041	34980.28
561.404	35087.62
561.767	35320.38
562.129	35131.24
562.492	35513.37
562.854	35401.51
563.217	35489.42
563.579	35728.28
563.941	35833.59
564.304	36073.13
564.666	36304.54
565.028	36202.4
565.39	36273.35
565.753	36498.88
566.115	36554.02
566.477	36790.18
566.839	36956.5
567.201	37211.18
567.563	36926.44
567.925	37285.08
568.287	37471.51
568.648	37559.87
569.01	37648.01
569.372	37913.31
569.734	37951.05
570.095	38095.23
570.457	38312.17
570.819	38337.71
571.18	38389.68
571.542	38653.63
571.903	38565.72
572.265	38670.35
572.626	38805.26
572.987	38930.01
573.349	39110.79
573.71	39263.11
574.071	39220.62
574.432	39479.37
574.794	39684.11
575.155	39627.39
575.516	39615.41
575.877	39847.05
576.238	39875.52
576.599	39962.07
576.96	39986.25
577.32	40128.39
577.681	40122.97
578.042	40384.66
578.403	40212.01
578.763	40259.01
579.124	40301.95
579.485	40539.23
579.845	40593.92
580.206	40506.01
580.566	40456.52
580.927	40451.32
581.287	40662.17
581.648	40477.54
582.008	40599.57
582.368	40730.86
582.728	40599.79
583.089	40661.04
583.449	40533.58
583.809	40795.04
584.169	40765.89
584.529	40528.61
584.889	40800.24
585.249	40476.41
585.609	40427.37
585.969	40746.23
586.329	40608.16
586.688	40724.76
587.048	40681.83
587.408	40668.72
587.768	40687.7
588.127	40704.65
588.487	40625.33
588.846	40856.96
589.206	40508.5
589.565	40344.43
589.925	40734.25
590.284	40641.6
590.643	40470.98
591.003	40488.84
591.362	40632.34
591.721	40617.65
592.08	40546.69
592.44	40623.97
592.799	40572.68
593.158	40511.66
593.517	40515.5
593.876	40721.37
594.235	40507.14
594.593	40576.07
594.952	40579.46
595.311	40518.21
595.67	40609.96
596.029	40748.04
596.387	40725.21
596.746	40835.72
597.104	40590.08
597.463	40602.51
597.822	40695.16
598.18	40589.4
598.538	40559.34
598.897	40907.36
599.255	40527.03
599.613	41062.61
599.972	40667.81
600.33	40907.13
600.688	40801.82
601.046	40849.28
601.404	41193.9
601.762	40962.95
602.12	41019.44
602.478	41191.64
602.836	41128.37
603.194	40993.46
603.552	40932.67
603.91	40899.67
604.268	41033.91
604.625	40975.83
604.983	41184.19
605.341	40975.83
605.698	41285.2
606.056	41426.89
606.413	41185.54
606.771	41584.17
607.128	41551.41
607.485	41294.92
607.843	41391.86
608.2	41491.75
608.557	41559.99
608.914	41414.69
609.272	41678.64
609.629	41786.2
609.986	41924.05
610.343	41726.77
610.7	42029.59
611.057	41869.37
611.414	41873.66
611.771	42083.37
612.127	42242.24
612.484	42300.99
612.841	42327.21
613.198	42155.46
613.554	42319.97
613.911	42482.46
614.267	42505.51
614.624	42470.93
614.98	42452.85
615.337	42721.55
615.693	42747.53
616.05	42729.23
616.406	42937.36
616.762	42718.16
617.118	42815.33
617.475	42720.42
617.831	42902.78
618.187	42851.03
618.543	42925.61
618.899	43282.44
619.255	43108.88
619.611	43073.63
619.967	43380.06
620.323	43316.11
620.678	43236.56
621.034	43184.36
621.39	43197.47
621.746	43365.37
622.101	43758.58
622.457	43294.64
622.812	43527.17
623.168	43610.11
623.523	43559.04
623.879	43589.09
624.234	43400.17
624.589	43649.88
624.945	43616.21
625.3	43511.58
625.655	43625.7
626.01	43706.83
626.365	43538.7
626.72	43468.19
627.075	43548.42
627.43	43494.18
627.785	43587.51
628.14	43517.23
628.495	43523.56
628.85	43637.23
629.205	43331.93
629.559	43700.05
629.914	43396.56
630.269	43470
630.623	43377.35
630.978	43061.65
631.332	43319.04
631.687	43374.18
632.041	43279.05
632.396	43368.31
632.75	43164.47
633.104	43268.65
633.459	42893.07
633.813	42893.97
634.167	43026.62
634.521	43051.71
634.875	43029.11
635.229	43043.57
635.583	42676.8
635.937	42774.88
636.291	42773.52
636.645	42639.74
636.999	42474.32
637.352	42700.53
637.706	42361.1
638.06	42485.85
638.413	42589.57
638.767	42342.8
639.121	42437.71
639.474	42199.53
639.828	42197.27
640.181	42185.52
640.534	42506.41
640.888	42096.93
641.241	41949.36
641.594	42078.63
641.947	42188
642.301	41875.47
642.654	42193.2
643.007	41919.53
643.36	41934
643.713	41808.35
644.066	42097.61
644.419	41635.93
644.771	41204.75
645.124	40963.63
645.477	40861.93
645.83	40908.49
646.182	40860.58
646.535	40696.51
646.888	40805.89
647.24	40626.69
647.593	40980.58
647.945	40823.74
648.298	40614.93
648.65	40493.36
649.002	40129.3
649.355	40217.43
649.707	39923.65
650.059	40013.59
650.411	40375.17
650.763	40728.83
651.115	41332.88
651.467	41047.24
651.819	41175.82
652.171	40995.72
652.523	40994.36
652.875	41012.21
653.227	40945.1
653.578	41280
653.93	41028.94
654.282	40902.38
654.633	40841.37
654.985	40936.96
655.337	41030.97
655.688	40991.2
656.039	40951.2
656.391	40612.68
656.742	40855.15
657.094	40757.98
657.445	40893.57
657.796	40882.95
658.147	40728.38
658.498	41023.29
658.849	40976.06
659.2	40692.67
659.551	40694.03
659.902	40897.87
660.253	40668.72
660.604	40819.68
660.955	40660.58
661.306	40822.39
661.656	40617.65
662.007	40845.21
662.358	40758.89
662.708	40838.88
663.059	40663.97
663.409	40579.46
663.76	40767.02
664.11	40929.28
664.461	40849.96
664.811	40753.01
665.161	40886.79
665.511	40601.15
665.862	40774.7
666.212	40782.16
666.562	40871.2
666.912	40809.73
667.262	40590.3
667.612	40733.8
667.962	40859.9
668.312	40648.38
668.662	40870.75
669.011	40670.07
669.361	40793.46
669.711	40811.31
670.06	40838.88
670.41	40755.72
670.76	40610.87
671.109	40959.78
671.459	40665.1
671.808	40544.88
672.157	40695.61
672.507	40499.68
672.856	40428.73
673.205	40647.7
673.554	40577.87
673.904	40561.38
674.253	40727.7
674.602	40555.95
674.951	40103.54
675.3	39657.22
675.649	40478.44
675.998	40378.33
676.346	40397.54
676.695	40339.24
677.044	40187.83
677.393	40220.14
677.741	40446.13
678.09	40178.11
678.438	40213.36
678.787	40311.44
679.135	40128.39
679.484	39836.2
679.832	40092.24
680.181	40045.01
680.529	40097.89
680.877	39922.07
681.225	39924.78
681.573	40142.4
681.922	39787.39
682.27	39765.92
682.618	39592.59
682.966	39654.28
683.314	39554.4
683.661	39440.73
684.009	39334.97
684.357	39356.66
684.705	39051.36
685.053	39352.82
685.4	39090.68
685.748	38910.35
686.095	39009.1
686.443	38765.04
686.79	38803.01
687.138	38872.83
687.485	38708.54
687.832	38708.32
688.18	38484.37
688.527	38445.27
688.874	38232.62
689.221	38172.29
689.568	38105.62
689.915	38082.8
690.262	38074.66
690.609	37846.87
690.956	37646.43
691.303	37736.82
691.65	37441.01
691.997	37312.2
692.344	37328.02
692.69	37159.43
693.037	37049.6
693.383	36857.29
693.73	36954.69
694.077	36800.12
694.423	36571.43
694.769	36582.27
695.116	36566.68
695.462	36377.98
695.808	36213.47
696.155	36271.77
696.501	35897.09
696.847	36009.18
697.193	35786.81
697.539	35964.44
697.885	35590.43
698.231	35464.56
698.577	35401.74
698.923	35452.36
699.269	35223.89
699.614	34963.78
699.96	35012.14
700.306	34812.6
700.651	34727.63
700.997	34599.95
701.342	34588.43
701.688	34359.28
702.033	34213.97
702.379	34181.66
702.724	34117.7
703.069	33998.16
703.415	33646.53
703.76	33708.68
704.105	33808.33
704.45	33593.2
704.795	33410.15
705.14	33349.59
705.485	33272.53
705.83	33059.43
706.175	33256.48
706.52	33139.2
706.865	33054.23
707.209	32791.86
707.554	32729.49
707.899	32823.95
708.243	32594.13
708.588	32576.73
708.932	32297.87
709.277	32405.89
709.621	32183.07
709.966	32104.88
710.31	32057.19
710.654	31798.22
710.998	31797.54
711.342	31859.46
711.687	31635.74
712.031	31656.07
712.375	31515.29
712.719	31513.25
713.063	31406.36
713.407	31473.93
713.75	31302.64
714.094	31276.88
714.438	31146.94
714.782	31205.92
715.125	31013.15
715.469	31221.51
715.812	30972.48
716.156	30846.15
716.499	30970.89
716.843	30977.45
717.186	30736.32
717.53	30998.01
717.873	30915.08
718.216	30854.97
718.559	30680.73
718.902	30448.65
719.246	30507.4
719.589	30403.23
719.932	30319.39
720.275	30311.48
720.617	30186.06
720.96	30152.61
721.303	30223.8
721.646	30263.79
721.989	30071.26
722.331	30091.82
722.674	30078.49
723.016	30120.75
723.359	29950.13
723.701	30007.08
724.044	29995.78
724.386	29807.99
724.729	30068.77
725.071	29915.1
725.413	29811.15
725.755	29813.64
726.097	29737.93
726.439	29559.41
726.782	29693.19
727.124	29817.03
727.465	29777.25
727.807	29520.76
728.149	29720.98
728.491	29581.55
728.833	29629.01
729.175	29667.88
729.516	29455.91
729.858	29519.18
730.199	29518.73
730.541	29601.67
730.882	29513.53
731.224	29445.06
731.565	29432.18
731.906	29445.74
732.248	29493.19
732.589	29284.84
732.93	29414.33
733.271	29349.47
733.612	29252.97
733.953	29491.61
734.294	29371.16
734.635	29295.91
734.976	29558.5
735.317	29359.41
735.658	29451.61
735.999	29360.09
736.339	29243.71
736.68	29303.82
737.021	29425.17
737.361	29323.03
737.702	29451.39
738.042	29391.95
738.383	29281.22
738.723	29355.12
739.063	29171.62
739.404	29318.51
739.744	29440.31
740.084	29249.36
740.424	29473.31
740.764	29222.69
741.104	29433.08
741.444	29275.12
741.784	29288.23
742.124	29437.83
742.464	29408.45
742.804	29370.48
743.143	29373.87
743.483	29525.06
743.823	29425.17
744.162	29563.93
744.502	29617.26
744.841	29616.58
745.181	29645.96
745.52	29606.18
745.86	29738.61
746.199	29779.51
746.538	29785.16
746.877	29973.18
747.216	30066.74
747.556	29903.8
747.895	30134.53
748.234	30078.04
748.573	30055.44
748.911	30056.79
749.25	30254.53
749.589	30098.38
749.928	30283.46
750.267	30352.15
750.605	30308.09
750.944	30286.62
751.283	30316.9
751.621	30512.38
751.96	30419.5
752.298	30478.93
752.636	30725.25
752.975	30601.41
753.313	30631.02
753.651	30821.07
753.989	30690.22
754.327	30833.95
754.666	30634.86
755.004	30939.03
755.342	30922.08
755.679	31032.81
756.017	30945.36
756.355	31048.18
756.693	31112.13
757.031	31235.75
757.368	31083.21
757.706	31128.63
758.044	31130.89
758.381	31162.08
758.719	31194.62
759.056	31332.47
759.394	31282.75
759.731	31072.36
760.068	31220.83
760.405	31301.96
760.743	31171.34
761.08	31237.55
761.417	31231.45
761.754	31135.86
762.091	31225.35
762.428	31011.35
762.765	31013.38
763.102	31227.84
763.438	31106.48
763.775	31027.84
764.112	31099.93
764.449	31149.65
764.785	30957.56
765.122	30881.63
765.458	30797.34
765.795	30802.99
766.131	30890.44
766.467	30886.38
766.804	30616.1
767.14	30529.1
767.476	30567.74
767.812	30553.05
768.148	30638.25
768.485	30508.53
768.821	30396.9
769.157	30276.9
769.492	30313.28
769.828	30287.07
770.164	30092.73
770.5	29985.84
770.836	29929.79
771.171	29997.36
771.507	29802.56
771.842	29706.52
772.178	29706.07
772.513	29741.1
772.849	29633.3
773.184	29591.04
773.519	29516.24
773.855	29317.6
774.19	29263.59
774.525	29185.4
774.86	29243.03
775.195	29080.1
775.53	28930.04
775.865	28828.13
776.2	28710.39
776.535	28546.78
776.87	28524.41
777.205	28314.69
777.539	28375.03
777.874	28472.66
778.209	28060.91
778.543	28318.31
778.878	28095.26
779.212	28050.29
779.547	27871.09
779.881	27924.2
780.215	27667.03
780.55	27759.45
780.884	27552
781.218	27330.09
781.552	27475.62
781.886	27223.2
782.22	27183.88
782.554	27027.04
782.888	26971.9
783.222	26906.37
783.556	26831.79
783.889	26654.62
784.223	26465.7
784.557	26471.35
784.89	26528.07
785.224	26231.36
785.557	26154.07
785.891	26241.75
786.224	26143
786.558	26032.04
786.891	25963.79
787.224	25779.39
787.557	25602
787.891	25676.57
788.224	25579.17
788.557	25480.19
788.89	25418.5
789.223	25365.84
789.556	25201.78
789.888	25195.45
790.221	25084.04
790.554	24905.07
790.887	24925.86
791.219	24767.67
791.552	24717.05
791.884	24748.46
792.217	24511.4
792.549	24494
792.882	24332.88
793.214	24351.18
793.546	24247.68
793.879	24218.98
794.211	23875.94
794.543	24078.65
794.875	23945.77
795.207	23873.45
795.539	23778.77
795.871	23882.95
796.203	23656.28
796.535	23528.38
796.867	23566.8
797.198	23333.81
797.53	23402.96
797.862	23195.51
798.193	23343.75
798.525	23082.74
798.856	23245.9
799.188	22971.33
799.519	22835.06
799.85	22772.92
800.182	22767.49
800.513	22748.96
800.844	22519.59
801.175	22740.15
801.506	22644.56
801.837	22482.53
802.168	22365.7
802.499	22481.85
802.83	22164.57
803.161	22134.52
803.491	22122.09
803.822	22189.66
804.153	22079.15
804.483	21913.28
804.814	21731.59
805.145	21850
805.475	21795.54
805.805	21742.44
806.136	21732.04
806.466	21645.94
806.796	21579.96
807.126	21418.38
807.457	21412.73
807.787	21475.33
808.117	21318.04
808.447	21294.99
808.777	21328.66
809.107	21104.94
809.436	21102.91
809.766	21172.28
810.096	21109.23
810.426	20976.81
810.755	20948.56
811.085	20865.17
811.414	20865.17
811.744	20721.22
812.073	20824.95
812.403	20695.91
812.732	20565.52
813.061	20713.54
813.39	20521
813.719	20476.26
814.049	20615.69
814.378	20433.32
814.707	20416.14
815.036	20357.61
815.365	20290.05
815.693	20127.56
816.022	20117.17
816.351	20053.44
816.68	20050.96
817.008	20051.86
817.337	19818.87
817.665	19859.77
817.994	19926.67
818.322	19950.62
818.651	19829.94
818.979	19673.56
819.307	19744.98
819.636	19675.15
819.964	19585.21
820.292	19688.71
820.62	19590.85
820.948	19691.87
821.276	19658.88
821.604	19564.64
821.932	19745.43
822.259	19606.22
822.587	19571.87
822.915	19539.56
823.243	19634.7
823.57	19502.04
823.898	19662.94
824.225	19521.03
824.553	19546.11
824.88	19526.22
825.207	19617.97
825.535	19461.82
825.862	19497.75
826.189	19453.01
826.516	19599.89
826.843	19599.67
827.17	19539.1
827.497	19640.8
827.824	19601.48
828.151	19723.28
828.478	19533.91
828.805	19659.55
829.131	19581.14
829.458	19629.5
829.785	19415.49
830.111	19523.29
830.438	19733.22
830.764	19627.24
831.09	19608.48
831.417	19469.5
831.743	19576.17
832.069	19555.38
832.395	19474.02
832.722	19602.83
833.048	19528.48
833.374	19556.96
833.7	19454.14
834.026	19530.97
834.351	19493
834.677	19572.1
835.003	19427.7
835.329	19423.85
835.654	19453.68
835.98	19407.58
836.306	19373.23
836.631	19368.71
836.956	19406.9
837.282	19432.22
837.607	19224.99
837.932	19310.86
838.258	19292.78
838.583	19233.58
838.908	19208.04
839.233	19280.13
839.558	19068.38
839.883	19044.88
840.208	18986.8
840.533	19133.24
840.858	19054.82
841.182	19060.02
841.507	18933.02
841.832	18884.88
842.156	18927.14
842.481	18961.27
842.805	18828.39
843.13	18766.24
843.454	18704.55
843.778	18678.79
844.103	18765.34
844.427	18625.23
844.751	18590.2
845.075	18601.73
845.399	18502.75
845.723	18415.29
846.047	18490.54
846.371	18272.02
846.695	18202.19
847.019	18215.07
847.343	18060.5
847.666	18054.4
847.99	18000.39
848.313	17957.45
848.637	17872.03
848.96	17793.39
849.284	17830.9
849.607	17669.32
849.931	17609.89
850.254	17536.22
850.577	17467.52
850.9	17293.06
851.223	17294.87
851.546	17174.87
851.869	17100.98
852.192	17232.95
852.515	17048.1
852.838	16874.99
853.161	16878.16
853.483	16793.87
853.806	16783.92
854.129	16839.51
854.451	16778.27
854.774	16594.32
855.096	16569.92
855.419	16533.31
855.741	16430.03
856.063	16418.51
856.385	16291.51
856.708	16332.41
857.03	16179.42
857.352	16280.66
857.674	16293.54
857.996	16167.67
858.318	16057.84
858.64	16150.72
858.961	15892.42
859.283	15898.75
859.605	15830.73
859.926	15831.41
860.248	15809.71
860.57	15697.85
860.891	15792.76
861.212	15702.37
861.534	15696.49
861.855	15631.86
862.176	15559.55
862.498	15566.1
862.819	15560.9
863.14	15440.91
863.461	15431.42
863.782	15396.16
864.103	15485.2
864.424	15312.1
864.745	15379.44
865.065	15236.17
865.386	15159.79
865.707	15295.83
866.027	15225.77
866.348	15244.3
866.668	15226.22
866.989	15053.12
867.309	15100.13
867.63	15068.04
867.95	15080.92
868.27	14975.16
868.59	15007.02
868.91	15003.86
869.23	15035.49
869.55	14880.24
869.87	15008.38
870.19	14916.4
870.51	14876.4
870.83	14790.3
871.15	14758.44
871.469	14778.33
871.789	14856.97
872.109	14824.43
872.428	14714.15
872.748	14741.26
873.067	14734.03
873.386	14706.01
873.706	14704.66
874.025	14650.42
874.344	14535.62
874.663	14570.42
874.982	14487.94
875.301	14496.53
875.62	14404.1
875.939	14361.84
876.258	14368.62
876.577	14292.69
876.896	14386.47
877.214	14330.65
877.533	14303.54
877.852	14297.21
878.17	14194.61
878.489	14326.81
878.807	14287.72
879.125	14231.45
879.444	14180.38
879.762	14086.37
880.08	14156.87
880.398	14129.76
880.716	14122.52
881.034	14045.24
881.352	14076.42
881.67	14009.98
881.988	13935.18
882.306	13950.1
882.624	13992.36
882.941	13872.14
883.259	13803.44
883.577	13842.53
883.894	13743.55
884.212	13811.12
884.529	13819.26
884.846	13615.64
885.164	13594.63
885.481	13598.02
885.798	13635.31
886.115	13510.79
886.432	13603.22
886.75	13511.69
887.067	13619.49
887.383	13449.1
887.7	13432.37
888.017	13350.57
888.334	13363.22
888.651	13352.83
888.967	13324.13
889.284	13179.05
889.6	13234.86
889.917	13184.02
890.233	13099.05
890.55	13045.26
890.866	13110.8
891.182	13032.38
891.498	13024.02
891.815	12943.8
892.131	12926.17
892.447	12897.02
892.763	12903.8
893.079	12812.95
893.395	12753.75
893.71	12725.27
894.026	12662
894.342	12592.62
894.657	12503.36
894.973	12549.68
895.289	12471.95
895.604	12489.12
895.92	12392.17
896.235	12431.95
896.55	12360.76
896.865	12242.35
897.181	12208.45
897.496	12235.34
897.811	12155.12
898.126	12143.59
898.441	12126.19
898.756	12113.76
899.071	12017.72
899.386	12045.74
899.7	11923.49
900.015	11905.41
900.33	11828.35
900.644	11760.55
900.959	11836.93
901.273	11722.36
901.588	11636.71
901.902	11617.05
902.216	11583.38
902.531	11611.63
902.845	11465.19
903.159	11396.95
903.473	11361.47
903.787	11319.21
904.101	11323.28
904.415	11353.56
904.729	11291.86
905.042	11208.93
905.356	11127.57
905.67	11142.04
905.984	11090.51
906.297	11124.18
906.611	11100.23
906.924	11053.45
907.237	10886.9
907.551	10893
907.864	10905.21
908.177	10840.12
908.491	10836.28
908.804	10747.47
909.117	10743.86
909.43	10667.47
909.743	10561.94
910.056	10610.07
910.368	10507.03
910.681	10495.05
910.994	10415.5
911.307	10420.25
911.619	10252.57
911.932	10317.88
912.244	10185.9
912.557	10272.91
912.869	10151.1
913.181	10134.61
913.494	10194.72
913.806	10083.31
914.118	10041.73
914.43	10020.71
914.742	9935.52
915.054	9891
915.366	9877.89
915.678	9853.71
915.99	9799.93
916.302	9761.73
916.613	9658.23
916.925	9710.89
917.236	9669.76
917.548	9585.69
917.859	9551.57
918.171	9522.87
918.482	9518.13
918.794	9452.82
919.105	9430.44
919.416	9348.41
919.727	9378.24
920.038	9309.77
920.349	9230
920.66	9205.59
920.971	9152.49
921.282	9133.73
921.593	9065.93
921.903	9020.51
922.214	9035.65
922.525	8982.77
922.835	8965.37
923.146	8923.56
923.456	8831.59
923.767	8809.67
924.077	8721.31
924.387	8753.85
924.697	8691.48
925.008	8618.49
925.318	8604.25
925.628	8605.16
925.938	8564.93
926.248	8494.42
926.558	8438.15
926.867	8453.07
927.177	8395.67
927.487	8398.38
927.796	8303.02
928.106	8322.9
928.416	8260.98
928.725	8208.1
929.034	8278.16
929.344	8204.94
929.653	8172.4
929.962	8072.06
930.271	8104.83
930.581	8046.98
930.89	7974.66
931.199	7891.73
931.508	7933.53
931.817	7899.64
932.125	7889.47
932.434	7855.57
932.743	7721.11
933.051	7735.8
933.36	7802.46
933.669	7690.83
933.977	7589.14
934.286	7607.89
934.594	7603.37
934.902	7519.31
935.21	7532.41
935.519	7504.39
935.827	7455.58
936.135	7449.25
936.443	7351.18
936.751	7306.43
937.059	7330.61
937.367	7300.33
937.674	7332.42
937.982	7237.96
938.29	7222.82
938.597	7221.01
938.905	7110.28
939.213	7141.24
939.52	7103.95
939.827	7063.27
940.135	6995.25
940.442	6986.44
940.749	6919.32
941.056	6978.08
941.363	6877.29
941.67	6894.47
941.977	6848.59
942.284	6773.11
942.591	6812.43
942.898	6775.82
943.205	6724.75
943.511	6715.71
943.818	6686.11
944.125	6632.78
944.431	6668.93
944.738	6557.53
945.044	6571.31
945.35	6565.89
945.657	6481.82
945.963	6430.75
946.269	6458.54
946.575	6440.47
946.881	6365.44
947.187	6379.9
947.493	6317.76
947.799	6261.49
948.105	6246.8
948.41	6240.7
948.716	6202.96
949.022	6203.86
949.327	6224.65
949.633	6114.15
949.938	6067.59
950.244	6108.27
950.549	6078.22
950.854	6058.78
951.16	5987.37
951.465	5957.09
951.77	5946.02
952.075	5939.69
952.38	5915.06
952.685	5891.33
952.99	5802.52
953.294	5845.45
953.599	5759.58
953.904	5769.75
954.209	5741.5
954.513	5758.45
954.818	5645.23
955.122	5706.7
955.426	5703.99
955.731	5598
956.035	5615.4
956.339	5572.01
956.643	5601.39
956.948	5549.42
957.252	5541.28
957.556	5501.51
957.86	5470.77
958.163	5481.4
958.467	5448.63
958.771	5359.14
959.075	5431.68
959.378	5361.62
959.682	5359.59
959.985	5302.42
960.289	5317.56
960.592	5206.83
960.896	5212.48
961.199	5208.63
961.502	5234.85
961.805	5156.88
962.108	5156.66
962.411	5079.82
962.714	5014.52
963.017	5127.05
963.32	5082.99
963.623	5045.7
963.926	5022.2
964.228	4999.6
964.531	4997.79
964.833	4956.44
965.136	4953.95
965.438	4878.93
965.741	4884.8
966.043	4860.17
966.345	4835.99
966.648	4811.13
966.95	4841.19
967.252	4746.05
967.554	4785.82
967.856	4743.34
968.158	4703.56
968.46	4710.34
968.761	4662.89
969.063	4621.76
969.365	4609.55
969.666	4617.46
969.968	4603.23
970.269	4556.67
970.571	4546.73
970.872	4546.96
971.174	4504.7
971.475	4519.84
971.776	4463.57
972.077	4439.16
972.378	4437.13
972.679	4444.81
972.98	4380.86
973.281	4401.2
973.582	4380.41
973.883	4345.61
974.183	4349.22
974.484	4291.14
974.785	4282.33
975.085	4259.28
975.386	4270.13
975.686	4196.46
975.986	4190.13
976.287	4195.33
976.587	4153.52
976.887	4138.15
977.187	4150.13
977.487	4121.66
977.787	4069.91
978.087	4089.12
978.387	4019.51
978.687	4016.58
978.987	4007.54
979.286	3991.04
979.586	3948.33
979.885	3916.46
980.185	3934.09
980.484	3895.9
980.784	3877.82
981.083	3888.44
981.382	3886.41
981.682	3896.8
981.981	3833.3
982.28	3805.51
982.579	3832.63
982.878	3786.3
983.177	3771.61
983.475	3758.05
983.774	3722.35
984.073	3719.41
984.372	3673.99
984.67	3707.43
984.969	3658.17
985.267	3676.7
985.566	3656.13
985.864	3618.39
986.162	3617.94
986.461	3604.61
986.759	3588.56
987.057	3549.69
987.355	3533.2
987.653	3518.51
987.951	3476.48
988.249	3504.05
988.547	3452.97
988.844	3433.99
989.142	3428.12
989.44	3466.99
989.737	3401.9
990.035	3374.33
990.332	3393.99
990.63	3342.92
990.927	3341.79
991.224	3338.63
991.521	3346.54
991.819	3323.71
992.116	3267.44
992.413	3254.56
992.71	3209.82
993.006	3239.65
993.303	3249.59
993.6	3206.2
993.897	3193.09
994.193	3157.84
994.49	3128.01
994.787	3149.48
995.083	3125.75
995.379	3083.72
995.676	3089.14
995.972	3071.97
996.268	3038.52
996.565	3091.4
996.861	3008.01
997.157	3014.34
997.453	2960.33
997.749	2993.55
998.044	2982.03
998.34	2940.45
998.636	2938.41
998.932	2937.51
999.227	2921.91
999.523	2894.57
999.818	2881.69
1000.114	2869.03
1000.409	2871.29
1000.704	2828.36
1001	2816.61
1001.295	2816.38
1001.59	2774.12
1001.885	2776.38
1002.18	2765.76
1002.475	2761.01
1002.77	2730.73
1003.065	2702.26
1003.359	2730.51
1003.654	2709.72
1003.949	2671.07
1004.243	2650.28
1004.538	2613.45
1004.832	2649.83
1005.127	2613.67
1005.421	2577.74
1005.715	2585.2
1006.009	2589.27
1006.304	2554.69
1006.598	2516.95
1006.892	2500.91
1007.186	2518.76
1007.48	2530.51
1007.773	2466.11
1008.067	2454.13
1008.361	2426.11
1008.655	2474.92
1008.948	2438.76
1009.242	2410.74
1009.535	2368.48
1009.829	2371.65
1010.122	2366.22
1010.415	2383.17
1010.708	2330.52
1011.001	2329.84
1011.295	2314.47
1011.588	2304.53
1011.881	2272.89
1012.173	2237.19
1012.466	2237.64
1012.759	2246.23
1013.052	2206
1013.344	2210.29
1013.637	2169.62
1013.93	2205.1
1014.222	2132.33
1014.514	2140.01
1014.807	2117.42
1015.099	2134.36
1015.391	2147.7
1015.683	2081.71
1015.976	2086
1016.268	2054.37
1016.56	2044.42
1016.851	2034.48
1017.143	2041.94
1017.435	2010.98
1017.727	1995.84
1018.018	1988.83
1018.31	1988.61
1018.602	2002.16
1018.893	1955.61
1019.185	1939.79
1019.476	1904.99
1019.767	1918.33
1020.058	1897.53
1020.35	1866.12
1020.641	1888.04
1020.932	1885.78
1021.223	1829.51
1021.514	1848.27
1021.804	1837.65
1022.095	1820.47
1022.386	1801.04
1022.677	1781.83
1022.967	1783.19
1023.258	1770.76
1023.548	1770.98
1023.839	1719.23
1024.129	1746.13
1024.419	1704.09
1024.709	1713.13
1025	1671.33
1025.29	1682.85
1025.58	1647.82
1025.87	1666.35
1026.16	1667.03
1026.449	1638.11
1026.739	1614.38
1027.029	1639.69
1027.319	1625.23
1027.608	1628.39
1027.898	1605.34
1028.187	1561.72
1028.477	1581.84
1028.766	1551.33
1029.055	1526.47
1029.344	1546.81
1029.634	1544.78
1029.923	1513.59
1030.212	1501.16
1030.501	1478.11
1030.79	1487.38
1031.078	1489.86
1031.367	1463.2
1031.656	1442.63
1031.945	1427.04
1032.233	1437.21
1032.522	1414.16
1032.81	1415.29
1033.099	1387.04
1033.387	1398.56
1033.675	1364.22
1033.963	1350.88
1034.251	1386.14
1034.54	1375.06
1034.828	1352.69
1035.116	1317.21
1035.403	1339.58
1035.691	1306.82
1035.979	1319.92
1036.267	1292.8
1036.554	1312.47
1036.842	1292.35
1037.129	1266.37
1037.417	1261.39
1037.704	1268.62
1037.992	1251.45
1038.279	1261.39
1038.566	1229.53
1038.853	1229.53
1039.14	1229.53
