Data from 383_FLMS001491_002.txt Node
Date: Thu Apr 19 15:42:28 BST 2018
User: hsy
Spectrometer: FLMS00149
Trigger mode: 0
Integration Time (sec): 1.000000E-2
Scans to average: 10
Electric dark correction enabled: true
Nonlinearity correction enabled: false
Boxcar width: 0
XAxis mode: Wavelengths
Number of Pixels in Spectrum: 2048
>>>>>Begin Spectral Data<<<<<
341.393	-16.31
341.776	-16.31
342.16	-16.31
342.543	-45.46
342.927	-69.87
343.31	-81.62
343.693	-83.88
344.077	-66.71
344.46	-55.63
344.843	-59.93
345.226	-25.8
345.61	-49.76
345.993	-10.89
346.376	-1.62
346.759	26.4
347.142	9.45
347.525	46.74
347.908	60.07
348.291	73.63
348.674	108.88
349.057	110.69
349.44	117.24
349.823	125.83
350.206	178.94
350.588	231.36
350.971	263.45
351.354	245.83
351.737	255.77
352.119	273.17
352.502	303.9
352.884	321.76
353.267	311.59
353.65	341.64
354.032	335.99
354.414	315.88
354.797	331.25
355.179	338.03
355.562	352.72
355.944	392.94
356.326	401.75
356.709	359.04
357.091	390
357.473	378.48
357.855	377.8
358.238	379.61
358.62	385.26
359.002	386.39
359.384	380.06
359.766	386.16
360.148	374.86
360.53	391.81
360.912	367.86
361.294	378.03
361.676	370.34
362.057	373.73
362.439	398.59
362.821	378.25
363.203	348.65
363.584	376.9
363.966	359.72
364.348	378.7
364.729	381.64
365.111	368.54
365.493	348.42
365.874	387.74
366.256	372.38
366.637	369.89
367.019	376.67
367.4	388.42
367.781	352.26
368.163	355.88
368.544	364.69
368.925	378.03
369.306	382.77
369.688	360.4
370.069	348.88
370.45	369.44
370.831	375.09
371.212	388.2
371.593	379.16
371.974	384.81
372.355	370.8
372.736	380.96
373.117	373.73
373.498	362.89
373.879	369.44
374.26	380.51
374.641	376.44
375.021	368.31
375.402	386.84
375.783	394.52
376.163	423.22
376.544	406.5
376.925	398.59
377.305	399.27
377.686	378.25
378.066	420.74
378.447	417.57
378.827	421.19
379.208	426.61
379.588	433.17
379.968	426.61
380.349	423.9
380.729	416.67
381.109	416.9
381.489	412.15
381.87	428.42
382.25	433.84
382.63	420.51
383.01	426.84
383.39	415.31
383.77	421.87
384.15	437.23
384.53	446.5
384.91	474.97
385.29	445.82
385.67	463.9
386.049	462.77
386.429	468.42
386.809	446.5
387.189	445.37
387.568	464.35
387.948	458.25
388.328	483.33
388.707	464.35
389.087	482.2
389.466	466.84
389.846	481.98
390.225	500.51
390.605	482.2
390.984	481.3
391.363	493.05
391.743	505.48
392.122	492.83
392.501	503.22
392.881	513.16
393.26	521.07
393.639	529.89
394.018	498.48
394.397	516.78
394.776	522.2
395.155	531.47
395.534	532.82
395.913	535.31
396.292	538.93
396.671	574.63
397.05	538.02
397.429	557.46
397.808	526.5
398.186	546.61
398.565	550.45
398.944	538.47
399.323	578.02
399.701	573.05
400.08	575.76
400.458	575.76
400.837	582.54
401.215	588.19
401.594	600.17
401.972	576.44
402.351	587.96
402.729	593.84
403.107	609.89
403.486	599.04
403.864	610.56
404.242	594.52
404.62	632.71
404.999	610.56
405.377	646.95
405.755	638.81
406.133	645.82
406.511	618.02
406.889	651.24
407.267	644.91
407.645	679.71
408.023	676.32
408.401	705.02
408.779	698.47
409.156	693.05
409.534	713.16
409.912	711.13
410.29	712.71
410.667	740.73
411.045	743.21
411.422	751.8
411.8	725.81
412.178	740.5
412.555	751.8
412.933	759.26
413.31	751.8
413.687	780.28
414.065	798.13
414.442	799.71
414.819	795.19
415.197	795.87
415.574	820.05
415.951	808.98
416.328	819.37
416.705	851.23
417.082	817.11
417.46	854.4
417.837	843.1
418.214	837.22
418.591	841.52
418.967	865.7
419.344	883.78
419.721	879.93
420.098	886.49
420.475	905.92
420.852	894.62
421.228	891.91
421.605	890.1
421.982	915.41
422.358	926.71
422.735	945.7
423.111	932.59
423.488	940.27
423.864	950.67
424.241	954.96
424.617	965.58
424.994	981.4
425.37	969.2
425.746	987.95
426.123	1003.1
426.499	1010.55
426.875	1021.85
427.251	1042.87
427.627	1030.21
428.003	1058.23
428.379	1057.33
428.756	1087.61
429.132	1088.74
429.507	1090.32
429.883	1107.5
430.259	1123.77
430.635	1129.65
431.011	1133.26
431.387	1166.25
431.763	1169.87
432.138	1166.25
432.514	1219.36
432.89	1225.91
433.265	1234.05
433.641	1240.6
434.016	1220.26
434.392	1281.05
434.767	1280.38
435.143	1305.91
435.518	1325.35
435.894	1303.43
436.269	1336.87
436.644	1363.31
437.02	1364.22
437.395	1344.56
437.77	1373.71
438.145	1382.29
438.52	1404.67
438.895	1387.27
439.271	1403.99
439.646	1425.23
440.021	1464.55
440.395	1447.38
440.77	1456.19
441.145	1461.39
441.52	1476.75
441.895	1460.94
442.27	1467.94
442.645	1511.1
443.019	1532.8
443.394	1545.68
443.769	1522.4
444.143	1539.13
444.518	1547.04
444.892	1515.62
445.267	1575.51
445.641	1586.13
446.016	1580.71
446.39	1589.75
446.764	1630.88
447.139	1619.58
447.513	1614.6
447.887	1617.54
448.262	1658.45
448.636	1694.15
449.01	1670.42
449.384	1680.14
449.758	1690.08
450.132	1711.55
450.506	1707.48
450.88	1754.26
451.254	1750.65
451.628	1761.49
452.002	1802.62
452.376	1801.27
452.75	1838.33
453.123	1838.33
453.497	1860.7
453.871	1872.45
454.244	1935.95
454.618	1923.07
454.992	1933.24
455.365	1948.61
455.739	2000.58
456.112	2017.08
456.486	2060.69
456.859	2088.26
457.232	2099.56
457.606	2098.21
457.979	2144.76
458.352	2169.17
458.725	2193.35
459.099	2160.13
459.472	2269.28
459.845	2264.3
460.218	2279.45
460.591	2330.07
460.964	2335.49
461.337	2342.72
461.71	2385.88
462.083	2438.31
462.456	2450.74
462.829	2486.9
463.201	2552.21
463.574	2521.25
463.947	2535.94
464.32	2609.61
464.692	2617.52
465.065	2668.14
465.438	2691.86
465.81	2712.43
466.183	2739.55
466.555	2812.31
466.928	2817.96
467.3	2792.43
467.672	2864.97
468.045	2923.95
468.417	2911.75
468.789	2926.43
469.161	2953.55
469.534	3033.78
469.906	3089.59
470.278	3081.91
470.65	3166.2
471.022	3206.65
471.394	3239.42
471.766	3295.01
472.138	3298.4
472.51	3396.25
472.882	3390.83
473.253	3509.92
473.625	3541.33
473.997	3557.15
474.369	3588.34
474.74	3637.38
475.112	3708.79
475.484	3778.16
475.855	3836.24
476.227	3899.06
476.598	4003.24
476.97	3997.82
477.341	4141.32
477.713	4190.81
478.084	4196.23
478.455	4368.43
478.827	4339.05
479.198	4465.6
479.569	4467.18
479.94	4615.2
480.311	4672.6
480.682	4796.89
481.053	4939.26
481.424	5029.66
481.795	5074.85
482.166	5185.13
482.537	5266.71
482.908	5345.35
483.279	5418.57
483.65	5595.06
484.021	5714.84
484.391	5749.18
484.762	5803.87
485.133	5907.6
485.503	5986.92
485.874	6131.55
486.244	6235.5
486.615	6435.04
486.985	6508.94
487.356	6602.04
487.726	6729.72
488.097	6836.61
488.467	6955.48
488.837	7101.69
489.207	7226.66
489.578	7388.92
489.948	7524.51
490.318	7626.65
490.688	7691.51
491.058	7965.4
491.428	8057.15
491.798	8187.76
492.168	8410.58
492.538	8494.2
492.908	8649
493.278	8862.55
493.648	8879.95
494.017	9112.26
494.387	9258.47
494.757	9394.51
495.126	9541.18
495.496	9615.3
495.866	9767.16
496.235	10054.16
496.605	10187.03
496.974	10333.47
497.344	10535.05
497.713	10694.59
498.082	10837.19
498.452	11058.42
498.821	11182.49
499.19	11293.67
499.559	11502.03
499.928	11705.19
500.298	11810.49
500.667	12095.68
501.036	12196.25
501.405	12460.87
501.774	12589.46
502.143	12762.79
502.512	12990.58
502.88	13207.29
503.249	13270.34
503.618	13573.39
503.987	13668.75
504.356	13925.24
504.724	14111.45
505.093	14230.77
505.462	14541.72
505.83	14635.73
506.199	14860.58
506.567	15221.48
506.936	15303.96
507.304	15621.92
507.672	15740.11
508.041	15980.55
508.409	16171.28
508.777	16456.47
509.145	16596.13
509.514	16646.53
509.882	16953.18
510.25	17172.39
510.618	17391.36
510.986	17571.25
511.354	17785.03
511.722	18075.87
512.09	18382.53
512.458	18387.04
512.826	18652.57
513.193	18826.58
513.561	19053.24
513.929	19209.62
514.297	19446.23
514.664	19765.99
515.032	19872.43
515.4	20079.43
515.767	20229.48
516.135	20455.69
516.502	20420.21
516.869	20834.44
517.237	21056.81
517.604	20899.75
517.972	21506.51
518.339	21510.13
518.706	21731.14
519.073	21764.36
519.44	21982.66
519.808	22225.81
520.175	22447.05
520.542	22650.44
520.909	22835.29
521.276	23122.06
521.643	23292.23
522.009	23417.65
522.376	23586.46
522.743	23863.06
523.11	24208.13
523.477	24372.88
523.843	24541.23
524.21	24829.59
524.577	24947.78
524.943	25227.77
525.31	25367.2
525.676	25729.22
526.043	25733.74
526.409	26054.19
526.776	26285.82
527.142	26305.71
527.508	26593.16
527.874	26813.26
528.241	26999.93
528.607	27254.38
528.973	27436.07
529.339	27437.43
529.705	27807.81
530.071	27978.43
530.437	28164.19
530.803	28291.87
531.169	28486.67
531.535	28505.65
531.901	28646.89
532.267	28714
532.632	29028.57
532.998	29132.07
533.364	29325.74
533.73	29340.88
534.095	29791.26
534.461	29743.13
534.826	29882.56
535.192	29961.2
535.557	30113.52
535.923	30150.8
536.288	30400.74
536.653	30475.31
537.019	30358.26
537.384	30523.22
537.749	30645.93
538.114	30714.4
538.479	30755.08
538.845	30777.68
539.21	30795.98
539.575	31125.92
539.94	31122.76
540.305	31235.07
540.67	31079.14
541.034	31363.65
541.399	31477.1
541.764	31475.51
542.129	31570.2
542.494	31657.43
542.858	31869.85
543.223	31731.33
543.587	31965.22
543.952	31956.63
544.316	32085.44
544.681	32122.95
545.045	32262.39
545.41	32378.09
545.774	32331.76
546.138	32343.29
546.503	32412.89
546.867	32412.66
547.231	32699.21
547.595	32655.82
547.959	32707.8
548.324	32844.74
548.688	32836.61
549.052	33033.89
549.416	32988.47
549.779	33013.1
550.143	33205.64
550.507	33216.94
550.871	33294
551.235	33225.75
551.599	33596.14
551.962	33602.46
552.326	33625.74
552.689	33771.95
553.053	33637.04
553.417	33712.52
553.78	34178.72
554.143	34113.18
554.507	34183.69
554.87	34233.41
555.234	34522.89
555.597	34397.25
555.96	34556.56
556.323	34552.04
556.686	34606.28
557.05	34947.29
557.413	34786.16
557.776	34969.89
558.139	35167.17
558.502	35231.57
558.865	35275.87
559.228	35495.07
559.59	35575.29
559.953	35712.01
560.316	36041.27
560.679	35970.76
561.041	36154.04
561.404	36246.91
561.767	36491.43
562.129	36456.4
562.492	36757.41
562.854	36904.98
563.217	36834.7
563.579	36962.6
563.941	37156.27
564.304	37372.99
564.666	37642.36
565.028	37462.02
565.39	37732.07
565.753	37873.76
566.115	37956.47
566.477	38156.69
566.839	38304.71
567.201	38603.69
567.563	38466.74
567.925	38853.4
568.287	38938.14
568.648	38867.41
569.01	39185.14
569.372	39504.23
569.734	39353.73
570.095	39617.22
570.457	39859.25
570.819	39835.52
571.18	39900.15
571.542	40202.06
571.903	40263.98
572.265	40202.06
572.626	40285.68
572.987	40567.03
573.349	40591.43
573.71	40669.85
574.071	40814.48
574.432	40983.74
574.794	41257.63
575.155	41142.6
575.516	41130.4
575.877	41332.88
576.238	41310.28
576.599	41399.1
576.96	41472.99
577.32	41614.23
577.681	41564.29
578.042	41868.91
578.403	41797.28
578.763	41870.27
579.124	41980.55
579.485	41983.03
579.845	42099.87
580.206	41992.3
580.566	41951.17
580.927	41952.3
581.287	42111.39
581.648	41996.37
582.008	42286.3
582.368	42155.01
582.728	42227.1
583.089	42196.14
583.449	42074.33
583.809	42231.16
584.169	42409.46
584.529	41989.81
584.889	42387.32
585.249	42057.61
585.609	42021.45
585.969	42191.16
586.329	42051.06
586.688	42105.29
587.048	42111.17
587.408	41973.77
587.768	42063.71
588.127	42131.51
588.487	42056.25
588.846	42293.08
589.206	41945.07
589.565	42053.77
589.925	42170.83
590.284	41998.4
590.643	41965.41
591.003	42081.11
591.362	42220.77
591.721	42055.57
592.08	42062.81
592.44	42189.36
592.799	42145.74
593.158	42072.07
593.517	42002.24
593.876	42173.99
594.235	41983.49
594.593	42146.19
594.952	42051.51
595.311	42065.52
595.67	42135.12
596.029	42244.95
596.387	42364.49
596.746	42411.95
597.104	42031.85
597.463	42092.41
597.822	42317.49
598.18	42091.28
598.538	42086.99
598.897	42284.95
599.255	41981.9
599.613	42570.14
599.972	42284.5
600.33	42438.16
600.688	42293.99
601.046	42466.19
601.404	42690.59
601.762	42406.98
602.12	42606.97
602.478	42510.03
602.836	42697.82
603.194	42426.86
603.552	42579.18
603.91	42456.92
604.268	42684.49
604.625	42586.41
604.983	42812.39
605.341	42561.32
605.698	42789.57
606.056	43152.72
606.413	42863.24
606.771	43147.07
607.128	43066.62
607.485	43018.71
607.843	42933.29
608.2	43174.42
608.557	43166.05
608.914	43184.13
609.272	43416.67
609.629	43543.45
609.986	43542.32
610.343	43407.18
610.7	43730.79
611.057	43641.75
611.414	43463.45
611.771	43613.95
612.127	43799.71
612.484	43837.22
612.841	43902.98
613.198	43818.92
613.554	43718.13
613.911	44092.13
614.267	44155.41
614.624	43939.37
614.98	44152.47
615.337	44399.92
615.693	44362.41
616.05	44344.55
616.406	44537.77
616.762	44281.51
617.118	44422.97
617.475	44440.6
617.831	44556.98
618.187	44543.19
618.543	44649.63
618.899	45048.49
619.255	44862.96
619.611	44856.63
619.967	44850.3
620.323	44977.08
620.678	44856.18
621.034	44924.43
621.39	44902.28
621.746	44824.09
622.101	45219.11
622.457	44990.41
622.812	45114.7
623.168	45198.09
623.523	45136.17
623.879	45286.68
624.234	45054.82
624.589	45151.09
624.945	45241.25
625.3	45332.32
625.655	45213.68
626.01	45444.41
626.365	45189.73
626.72	45206.45
627.075	45116.06
627.43	45153.35
627.785	45139.56
628.14	45107.47
628.495	45119.45
628.85	45148.38
629.205	45151.31
629.559	45227.92
629.914	45085.1
630.269	45131.65
630.623	44831.55
630.978	44622.51
631.332	44963.75
631.687	44981.83
632.041	44772.79
632.396	44994.25
632.75	44792
633.104	44760.59
633.459	44686.24
633.813	44698.9
634.167	44697.54
634.521	44810.76
634.875	44657.31
635.229	44496.87
635.583	44318.11
635.937	44277.89
636.291	44326.25
636.645	44431.33
636.999	44198.34
637.352	44295.97
637.706	43831.35
638.06	44168.29
638.413	43956.99
638.767	43978.46
639.121	44019.59
639.474	43753.38
639.828	43814.4
640.181	43733.05
640.534	43885.13
640.888	43560.62
641.241	43526.04
641.594	43424.13
641.947	43661.63
642.301	43465.03
642.654	43549.77
643.007	43427.74
643.36	43487.85
643.713	43403.56
644.066	43637.23
644.419	43188.88
644.771	42851.49
645.124	42423.93
645.477	42512.74
645.83	42343.7
646.182	42317.71
646.535	42225.74
646.888	42337.6
647.24	42143.48
647.593	42382.35
647.945	42233.2
648.298	42031.39
648.65	41973.09
649.002	41707.11
649.355	41604.51
649.707	41433.9
650.059	41468.47
650.411	41963.37
650.763	42357.71
651.115	42866.63
651.467	42588.22
651.819	42681.77
652.171	42642.45
652.523	42456.24
652.875	42437.71
653.227	42378.73
653.578	42766.74
653.93	42454.21
654.282	42276.59
654.633	42311.61
654.985	42359.97
655.337	42309.81
655.688	42310.48
656.039	42574.43
656.391	42074.78
656.742	42320.88
657.094	42236.14
657.445	42344.38
657.796	42291.95
658.147	42148.23
658.498	42226.87
658.849	42387.54
659.2	42080.66
659.551	41999.08
659.902	42274.33
660.253	41908.23
660.604	42273.42
660.955	42004.28
661.306	42323.14
661.656	42133.54
662.007	42159.08
662.358	42085.4
662.708	42279.98
663.059	42203.59
663.409	42063.48
663.76	42263.71
664.11	42208.79
664.461	42222.35
664.811	42168.79
665.161	42173.31
665.511	42190.71
665.862	42264.16
666.212	42270.71
666.562	42392.52
666.912	42382.12
667.262	42088.57
667.612	42124.5
667.962	42373.08
668.312	42216.02
668.662	42519.97
669.011	42336.7
669.361	42317.04
669.711	42192.29
670.06	42173.09
670.41	42238.62
670.76	42147.55
671.109	42322.46
671.459	42071.85
671.808	42126.31
672.157	42180.09
672.507	41797.95
672.856	41925.18
673.205	42032.52
673.554	41982.81
673.904	41932.87
674.253	42229.81
674.602	41960.66
674.951	41426.44
675.3	41302.6
675.649	41880.21
675.998	41758.18
676.346	42004.5
676.695	41932.87
677.044	41703.27
677.393	41686.32
677.741	41762.25
678.09	41688.8
678.438	41609.94
678.787	41725.87
679.135	41608.58
679.484	41448.13
679.832	41531.29
680.181	41412.43
680.529	41463.05
680.877	41206.11
681.225	41208.59
681.573	41553.44
681.922	41185.32
682.27	41073.91
682.618	41321.81
682.966	41042.95
683.314	41060.8
683.661	41055.83
684.009	40911.65
684.357	40748.26
684.705	40606.8
685.053	40744.42
685.4	40530.42
685.748	40419.46
686.095	40372.46
686.443	40175.17
686.79	40229.86
687.138	40341.27
687.485	40192.35
687.832	40090.43
688.18	40135.17
688.527	39947.38
688.874	39888.85
689.221	39743.77
689.568	39463.55
689.915	39528.18
690.262	39497.68
690.609	39433.27
690.956	39179.72
691.303	39235.54
691.65	39167.74
691.997	38977.01
692.344	38823.34
692.69	38796.9
693.037	38780.63
693.383	38278.73
693.73	38486.4
694.077	38255.45
694.423	38182.46
694.769	38038.51
695.116	38014.1
695.462	37880.54
695.808	37556.26
696.155	37728.01
696.501	37298.64
696.847	37455.92
697.193	37212.09
697.539	37179.77
697.885	36879.89
698.231	36871.98
698.577	36842.15
698.923	36764.87
699.269	36394.48
699.614	36408.04
699.96	36180.93
700.306	36274.26
700.651	36030.65
700.997	35972.57
701.342	35834.72
701.688	35745.68
702.033	35542.75
702.379	35453.26
702.724	35334.85
703.069	35321.29
703.415	34919.94
703.76	35029.77
704.105	34907.97
704.45	34714.75
704.795	34731.7
705.14	34574.19
705.485	34508.43
705.83	34327.64
706.175	34308.89
706.52	34271.15
706.865	34083.13
707.209	33907.77
707.554	33988.89
707.899	33795.45
708.243	33693.76
708.588	33735.34
708.932	33694.44
709.277	33515.91
709.621	33419.42
709.966	33320.89
710.31	33263.94
710.654	33034.34
710.998	33205.64
711.342	33091.74
711.687	32955.93
712.031	32906.44
712.375	32640
712.719	32557.75
713.063	32670.74
713.407	32737.85
713.75	32580.12
714.094	32515.49
714.438	32339.67
714.782	32346.23
715.125	32135.61
715.469	32390.07
715.812	32074.59
716.156	32048.61
716.499	32095.38
716.843	32143.75
717.186	31883.64
717.53	32148.72
717.873	32107.59
718.216	31895.39
718.559	31793.25
718.902	31517.1
719.246	31633.93
719.589	31543.31
719.932	31329.3
720.275	31552.8
720.617	31514.61
720.96	31420.6
721.303	31406.59
721.646	31345.12
721.989	31396.87
722.331	31270.55
722.674	31289.98
723.016	31275.07
723.359	31151
723.701	31163.43
724.044	31142.87
724.386	30991.91
724.729	31200.72
725.071	31146.03
725.413	31065.58
725.755	30984.68
726.097	30795.98
726.439	30731.35
726.782	30816.32
727.124	30890.67
727.465	30830.79
727.807	30746.72
728.149	30801.86
728.491	30688.64
728.833	30931.57
729.175	30743.33
729.516	30573.62
729.858	30526.84
730.199	30727.06
730.541	30501.75
730.882	30405.94
731.224	30573.84
731.565	30438.48
731.906	30480.29
732.248	30501.3
732.589	30365.49
732.93	30416.11
733.271	30508.31
733.612	30386.96
733.953	30593.96
734.294	30415.43
734.635	30486.39
734.976	30534.52
735.317	30346.05
735.658	30321.42
735.999	30278.03
736.339	30364.13
736.68	30483.22
737.021	30431.25
737.361	30391.02
737.702	30510.57
738.042	30335.21
738.383	30435.32
738.723	30399.38
739.063	30334.3
739.404	30557.8
739.744	30482.32
740.084	30368.88
740.424	30572.94
740.764	30459.72
741.104	30655.87
741.444	30567.74
741.784	30422.21
742.124	30693.16
742.464	30626.5
742.804	30518.93
743.143	30615.88
743.483	30706.04
743.823	30560.28
744.162	30567.97
744.502	30551.7
744.841	30593.96
745.181	30855.19
745.52	30809.09
745.86	30831.92
746.199	30836.89
746.538	30797.57
746.877	30962.53
747.216	30938.35
747.556	31008.41
747.895	31042.31
748.234	31085.02
748.573	31029.88
748.911	31106.48
749.25	31132.92
749.589	31049.99
749.928	31323.65
750.267	31285.69
750.605	31391.9
750.944	31315.52
751.283	31427.83
751.621	31588.05
751.96	31473.48
752.298	31541.28
752.636	31657.88
752.975	31712.12
753.313	31623.53
753.651	32061.49
753.989	31786.24
754.327	31941.94
754.666	31669.63
755.004	31973.35
755.342	31982.39
755.679	32041.15
756.017	32021.26
756.355	32108.27
756.693	32033.69
757.031	32271.2
757.368	32185.33
757.706	32283.63
758.044	32070.07
758.381	32229.39
758.719	32255.83
759.056	32369.05
759.394	32320.46
759.731	32239.34
760.068	32281.14
760.405	32376.28
760.743	32169.28
761.08	32367.69
761.417	32229.84
761.754	32160.02
762.091	32334.7
762.428	32007.48
762.765	32151.88
763.102	32272.78
763.438	32124.54
763.775	32126.57
764.112	32104.88
764.449	32175.61
764.785	32243.63
765.122	32019.23
765.458	31945.11
765.795	31979.68
766.131	31987.37
766.467	32012.22
766.804	31821.49
767.14	31812.45
767.476	31749.63
767.812	31691.33
768.148	31781.04
768.485	31580.14
768.821	31501.73
769.157	31496.08
769.492	31489.07
769.828	31461.96
770.164	31186.71
770.5	31104.45
770.836	31213.37
771.171	31053.83
771.507	31085.24
771.842	30852.25
772.178	30893.38
772.513	30822.2
772.849	30568.87
773.184	30666.04
773.519	30665.82
773.855	30471.02
774.19	30464.47
774.525	30302.21
774.86	30298.6
775.195	30215.43
775.53	30032.16
775.865	29914.43
776.2	29805.73
776.535	29598.28
776.87	29574.32
777.205	29494.55
777.539	29318.96
777.874	29388.34
778.209	29127.55
778.543	29174.56
778.878	29021.12
779.212	28959.42
779.547	28813.89
779.881	28877.16
780.215	28650.28
780.55	28609.6
780.884	28403.05
781.218	28368.93
781.552	28502.94
781.886	28258.2
782.22	28182.72
782.554	27996.28
782.888	27816.18
783.222	27833.12
783.556	27555.84
783.889	27549.74
784.223	27297.32
784.557	27434.72
784.89	27484.66
785.224	27277.43
785.557	27219.35
785.891	27014.84
786.224	27003.09
786.558	27042.64
786.891	26804.45
787.224	26674.51
787.557	26559.03
787.891	26608.3
788.224	26493.05
788.557	26407.85
788.89	26309.1
789.223	26255.09
789.556	26079.5
789.888	26083.11
790.221	26057.8
790.554	25695.55
790.887	25764.25
791.219	25790.92
791.552	25663.46
791.884	25540.75
792.217	25573.3
792.549	25437.25
792.882	25174.89
793.214	25210.59
793.546	25190.03
793.879	25106.42
794.211	24933.09
794.543	24954.1
794.875	24856.48
795.207	24858.74
795.539	24788.01
795.871	24827.33
796.203	24572.64
796.535	24369.03
796.867	24466.66
797.198	24310.05
797.53	24203.62
797.862	24106.44
798.193	24185.99
798.525	24051.75
798.856	24118.42
799.188	23801.37
799.519	23768.37
799.85	23588.94
800.182	23655.83
800.513	23827.13
800.844	23529.06
801.175	23501.26
801.506	23536.29
801.837	23246.13
802.168	23245.22
802.499	23192.57
802.83	23099.01
803.161	23026.7
803.491	23057.2
803.822	23134.49
804.153	22914.38
804.483	22744.9
804.814	22605.69
805.145	22618.8
805.475	22709.87
805.805	22473.72
806.136	22525.02
806.466	22524.34
806.796	22464.68
807.126	22235.76
807.457	22269.88
807.787	22272.14
808.117	22138.13
808.447	22081.41
808.777	22113.27
809.107	21891.59
809.436	21761.65
809.766	21993.05
810.096	21912.6
810.426	21801.87
810.755	21763.91
811.085	21621.54
811.414	21734.53
811.744	21442.33
812.073	21539.5
812.403	21497.47
812.732	21280.75
813.061	21317.14
813.39	21099.52
813.719	21104.49
814.049	21267.87
814.378	21148.1
814.707	21057.71
815.036	21004.83
815.365	20934.77
815.693	20876.92
816.022	20869.01
816.351	20662.47
816.68	20778.62
817.008	20807.77
817.337	20452.75
817.665	20534.78
817.994	20625.63
818.322	20608.91
818.651	20530.27
818.979	20412.98
819.307	20473.09
819.636	20434.22
819.964	20446.43
820.292	20468.35
820.62	20387.67
820.948	20372.53
821.276	20432.19
821.604	20372.76
821.932	20486.65
822.259	20363.94
822.587	20323.27
822.915	20318.75
823.243	20368.24
823.57	20271.97
823.898	20398.97
824.225	20233.55
824.553	20325.07
824.88	20356.03
825.207	20398.74
825.535	20192.87
825.862	20374.79
826.189	20260.67
826.516	20515.58
826.843	20447.33
827.17	20389.7
827.497	20408.01
827.824	20372.08
828.151	20438.29
828.478	20342.7
828.805	20556.03
829.131	20394.45
829.458	20398.29
829.785	20282.36
830.111	20384.05
830.438	20497.95
830.764	20444.17
831.09	20473.54
831.417	20279.42
831.743	20328.01
832.069	20356.26
832.395	20341.57
832.722	20418.4
833.048	20299.08
833.374	20357.39
833.7	20273.55
834.026	20246.2
834.351	20244.4
834.677	20263.15
835.003	20276.94
835.329	20257.05
835.654	20296.37
835.98	20098.64
836.306	20289.82
836.631	20130.73
836.956	20229.93
837.282	20195.36
837.607	20125.53
837.932	20024.52
838.258	20050.28
838.583	19945.2
838.908	19867.23
839.233	20018.41
839.558	19854.8
839.883	19746.56
840.208	19776.61
840.533	19804.41
840.858	19757.63
841.182	19797.63
841.507	19713.11
841.832	19630.85
842.156	19669.72
842.481	19549.5
842.805	19608.93
843.13	19489.61
843.454	19500.01
843.778	19467.92
844.103	19409.62
844.427	19282.84
844.751	19357.19
845.075	19298.43
845.399	19205.1
845.723	19109.29
846.047	19058.67
846.371	18987.93
846.695	18953.36
847.019	18835.39
847.343	18796.98
847.666	18759.69
847.99	18667.94
848.313	18546.81
848.637	18566.48
848.96	18526.93
849.284	18377.1
849.607	18368.97
849.931	18314.05
850.254	18199.71
850.577	17985.93
850.9	17953.16
851.223	17899.37
851.546	17817.34
851.869	17650.34
852.192	17860.05
852.515	17653.05
852.838	17575.54
853.161	17581.42
853.483	17368.54
853.806	17453.28
854.129	17412.16
854.451	17342.78
854.774	17184.59
855.096	17182.78
855.419	17073.41
855.741	17012.39
856.063	17073.18
856.385	16957.7
856.708	16939.4
857.03	16861.21
857.352	16795
857.674	16792.28
857.996	16717.71
858.318	16620.99
858.64	16684.04
858.961	16497.83
859.283	16522.24
859.605	16475.91
859.926	16370.6
860.248	16391.84
860.57	16267.55
860.891	16280.66
861.212	16250.83
861.534	16242.92
861.855	16138.29
862.176	16146.88
862.498	16096.94
862.819	16125.41
863.14	16043.83
863.461	16088.35
863.782	16044.73
864.103	16041.34
864.424	15872.76
864.745	16022.14
865.065	15834.57
865.386	15814.01
865.707	15831.41
866.027	15780.79
866.348	15760.9
866.668	15694.46
866.989	15811.97
867.309	15473.9
867.63	15613.78
867.95	15593.9
868.27	15510.74
868.59	15618.53
868.91	15482.71
869.23	15487.23
869.55	15425.77
869.87	15507.35
870.19	15367.92
870.51	15482.71
870.83	15493.34
871.15	15402.94
871.469	15318.2
871.789	15403.17
872.109	15397.07
872.428	15218.31
872.748	15243.62
873.067	15132.89
873.386	15204.98
873.706	15179.45
874.025	15111.2
874.344	15131.99
874.663	15177.41
874.982	15053.12
875.301	15022.39
875.62	14992.56
875.939	14909.17
876.258	15042.05
876.577	14885.89
876.896	14950.52
877.214	14837.31
877.533	14860.36
877.852	14853.58
878.17	14816.29
878.489	14854.03
878.807	14789.17
879.125	14732
879.444	14664.66
879.762	14738.78
880.08	14668.5
880.398	14625.56
880.716	14577.43
881.034	14573.81
881.352	14555.06
881.67	14518.9
881.988	14478.67
882.306	14456.07
882.624	14424.66
882.941	14435.74
883.259	14376.08
883.577	14377.66
883.894	14305.12
884.212	14280.03
884.529	14269.41
884.846	14076.42
885.164	14072.36
885.481	14055.86
885.798	14114.39
886.115	13995.07
886.432	14064.45
886.75	14027.61
887.067	14065.12
887.383	13948.52
887.7	13949.2
888.017	13824.23
888.334	13864.23
888.651	13788.07
888.967	13821.52
889.284	13664.91
889.6	13714.85
889.917	13654.97
890.233	13606.61
890.55	13597.11
890.866	13684.8
891.182	13564.35
891.498	13607.28
891.815	13403.22
892.131	13341.53
892.447	13435.54
892.763	13368.42
893.079	13309.66
893.395	13250
893.71	13283.45
894.026	13198.93
894.342	13156.22
894.657	13052.27
894.973	13040.74
895.289	12952.84
895.604	12945.61
895.92	12855.44
896.235	12893.4
896.55	12858.6
896.865	12848.89
897.181	12775.44
897.496	12763.92
897.811	12723.46
898.126	12673.52
898.441	12655.44
898.756	12624.94
899.071	12499.29
899.386	12589.68
899.7	12479.86
900.015	12367.99
900.33	12374.77
900.644	12254.32
900.959	12283.7
901.273	12270.37
901.588	12179.52
901.902	12182.01
902.216	12049.58
902.531	12079.41
902.845	12034.22
903.159	11932.75
903.473	12001
903.787	11886.2
904.101	11770.27
904.415	11845.07
904.729	11801.23
905.042	11676.49
905.356	11602.14
905.67	11569.6
905.984	11595.13
906.297	11517.85
906.611	11456.15
906.924	11428.36
907.237	11455.48
907.551	11318.76
907.864	11274.69
908.177	11319.21
908.491	11270.17
908.804	11094.13
909.117	11174.35
909.43	11090.74
909.743	11071.08
910.056	11124.64
910.368	10956.51
910.681	10949.73
910.994	10849.39
911.307	10829.73
911.619	10756.51
911.932	10760.8
912.244	10611.2
912.557	10668.15
912.869	10549.06
913.181	10553.8
913.494	10573.92
913.806	10451.43
914.118	10436.07
914.43	10422.96
914.742	10473.58
915.054	10265.9
915.366	10320.14
915.678	10236.52
915.99	10203.53
916.302	10144.55
916.613	10112.91
916.925	10112.01
917.236	10053.25
917.548	9972.12
917.859	9933.03
918.171	9921.96
918.482	9856.87
918.794	9823.65
919.105	9785.01
919.416	9703.66
919.727	9701.4
920.038	9670.89
920.349	9559.93
920.66	9521.29
920.971	9556.32
921.282	9490.56
921.593	9472.48
921.903	9451.91
922.214	9404
922.525	9338.47
922.835	9308.87
923.146	9202.43
923.456	9251.24
923.767	9131.92
924.077	9114.52
924.387	9070
924.697	9068.87
925.008	9134.18
925.318	8970.8
925.628	8996.11
925.938	8912.49
926.248	8881.31
926.558	8783
926.867	8746.39
927.177	8776.9
927.487	8736.9
927.796	8732.38
928.106	8671.37
928.416	8637.7
928.725	8574.87
929.034	8527.19
929.344	8538.04
929.653	8431.83
929.962	8414.43
930.271	8393.64
930.581	8354.54
930.89	8330.13
931.199	8206.52
931.508	8271.38
931.817	8219.4
932.125	8190.48
932.434	8153.64
932.743	8127.65
933.051	8062.8
933.36	8047.66
933.669	8017.83
933.977	7936.25
934.286	7915
934.594	7896.47
934.902	7861.9
935.21	7858.28
935.519	7740.77
935.827	7802.92
936.135	7682.92
936.443	7656.25
936.751	7648.57
937.059	7653.54
937.367	7537.61
937.674	7544.17
937.982	7524.05
938.29	7523.6
938.597	7472.53
938.905	7393.66
939.213	7348.01
939.52	7320.22
939.827	7332.19
940.135	7306.88
940.442	7181.92
940.749	7224.85
941.056	7221.01
941.363	7147.79
941.67	7127
941.977	7078.19
942.284	7015.82
942.591	7029.38
942.898	7016.5
943.205	6975.37
943.511	6945.31
943.818	6912.54
944.125	6874.35
944.431	6774.69
944.738	6895.6
945.044	6765.66
945.35	6769.5
945.657	6747.35
945.963	6734.7
946.269	6678.43
946.575	6696.05
946.881	6575.83
947.187	6597.52
947.493	6585.55
947.799	6574.93
948.105	6541.71
948.41	6450.41
948.716	6488.6
949.022	6419.9
949.327	6395.04
949.633	6383.97
949.938	6385.33
950.244	6301.49
950.549	6313.69
950.854	6247.48
951.16	6281.37
951.465	6184.2
951.77	6188.72
952.075	6173.35
952.38	6093.58
952.685	6090.19
952.99	6074.37
953.294	6041.83
953.599	6000.25
953.904	5960.7
954.209	5962.74
954.513	5972.46
954.818	5875.06
955.122	5893.36
955.426	5870.76
955.731	5830.76
956.035	5759.35
956.339	5791.44
956.643	5720.03
956.948	5746.47
957.252	5732.69
957.556	5716.64
957.86	5670.32
958.163	5688.85
958.467	5609.53
958.771	5615.86
959.075	5593.93
959.378	5511.45
959.682	5513.26
959.985	5552.81
960.289	5465.8
960.592	5422.64
960.896	5427.84
961.199	5418.57
961.502	5399.59
961.805	5381.06
962.108	5295.41
962.411	5308.07
962.714	5239.59
963.017	5231.46
963.32	5246.15
963.623	5215.19
963.926	5200.5
964.228	5144.68
964.531	5128.41
964.833	5151.23
965.136	5067.17
965.438	5085.02
965.741	5027.4
966.043	5043.67
966.345	5019.71
966.648	4959.6
966.95	4983.1
967.252	4924.12
967.554	4963.44
967.856	4851.81
968.158	4833.5
968.46	4828.31
968.761	4882.99
969.063	4858.59
969.365	4783.79
969.666	4821.98
969.968	4779.27
970.269	4696.56
970.571	4720.74
970.872	4718.93
971.174	4672.6
971.475	4628.76
971.776	4582.44
972.077	4617.92
972.378	4602.1
972.679	4568.65
972.98	4549.44
973.281	4536.11
973.582	4518.48
973.883	4482.1
974.183	4483
974.484	4417.47
974.785	4368.2
975.085	4372.05
975.386	4390.58
975.686	4370.92
975.986	4345.15
976.287	4320.52
976.587	4271.94
976.887	4303.35
977.187	4308.32
977.487	4238.94
977.787	4240.07
978.087	4206.85
978.387	4187.64
978.687	4169.11
978.987	4145.16
979.286	4157.59
979.586	4130.02
979.885	4105.84
980.185	4116.69
980.484	4076.91
980.784	4007.54
981.083	4038.27
981.382	4043.02
981.682	3971.38
981.981	3984.49
982.28	3980.19
982.579	3936.58
982.878	3958.05
983.177	3919.18
983.475	3925.73
983.774	3883.02
984.073	3819.74
984.372	3841.89
984.67	3846.64
984.969	3814.09
985.267	3805.28
985.566	3746.3
985.864	3711.05
986.162	3730.93
986.461	3691.39
986.759	3689.8
987.057	3631.5
987.355	3602.12
987.653	3619.3
987.951	3641.22
988.249	3625.85
988.547	3594.67
988.844	3535.91
989.142	3555.34
989.44	3551.95
989.737	3521.45
990.035	3509.24
990.332	3473.99
990.63	3479.41
990.927	3465.63
991.224	3476.93
991.521	3458.85
991.819	3414.33
992.116	3422.47
992.413	3413.88
992.71	3377.5
993.006	3359.87
993.303	3330.72
993.6	3318.06
993.897	3251.4
994.193	3294.56
994.49	3269.02
994.787	3244.62
995.083	3202.13
995.379	3198.74
995.676	3182.92
995.972	3150.61
996.268	3122.36
996.565	3150.38
996.861	3158.29
997.157	3099.31
997.453	3107.67
997.749	3075.58
998.044	3091.85
998.34	3047.56
998.636	3038.52
998.932	3006.88
999.227	3011.4
999.523	3014.12
999.818	2968.24
1000.114	2954
1000.409	2964.17
1000.704	2892.76
1001	2888.92
1001.295	2881.01
1001.59	2853.22
1001.885	2842.82
1002.18	2883.05
1002.475	2821.8
1002.77	2803.73
1003.065	2815.48
1003.359	2772.54
1003.654	2779.77
1003.949	2734.35
1004.243	2763.5
1004.538	2702.26
1004.832	2710.62
1005.127	2692.99
1005.421	2688.47
1005.715	2697.97
1006.009	2624.3
1006.304	2643.5
1006.598	2637.85
1006.892	2575.71
1007.186	2611.19
1007.48	2556.05
1007.773	2553.79
1008.067	2542.26
1008.361	2534.35
1008.655	2529.61
1008.948	2482.15
1009.242	2483.51
1009.535	2472.21
1009.829	2444.87
1010.122	2447.12
1010.415	2420.68
1010.708	2411.87
1011.001	2393.12
1011.295	2392.66
1011.588	2381.14
1011.881	2333.46
1012.173	2342.27
1012.466	2342.27
1012.759	2318.99
1013.052	2313.8
1013.344	2295.04
1013.637	2261.14
1013.93	2274.02
1014.222	2238.09
1014.514	2253.01
1014.807	2210.75
1015.099	2210.52
1015.391	2189.05
1015.683	2156.29
1015.976	2164.65
1016.268	2109.28
1016.56	2107.92
1016.851	2125.78
1017.143	2108.6
1017.435	2086.68
1017.727	2074.25
1018.018	2073.35
1018.31	2045.33
1018.602	2085.33
1018.893	2036.74
1019.185	2030.41
1019.476	2007.36
1019.767	1994.03
1020.058	1992
1020.35	1929.62
1020.641	1946.8
1020.932	1935.95
1021.223	1895.28
1021.514	1911.55
1021.804	1885.11
1022.095	1875.16
1022.386	1862.51
1022.677	1865.22
1022.967	1844.65
1023.258	1831.1
1023.548	1814.15
1023.839	1810.76
1024.129	1827.48
1024.419	1794.49
1024.709	1751.78
1025	1762.17
1025.29	1727.6
1025.58	1759.23
1025.87	1726.01
1026.16	1720.59
1026.449	1688.27
1026.739	1676.07
1027.029	1679.01
1027.319	1674.26
1027.608	1649.86
1027.898	1626.81
1028.187	1650.54
1028.477	1633.36
1028.766	1608.5
1029.055	1606.47
1029.344	1535.74
1029.634	1578.67
1029.923	1579.8
1030.212	1557.2
1030.501	1559.01
1030.79	1549.75
1031.078	1494.16
1031.367	1467.94
1031.656	1499.81
1031.945	1472.91
1032.233	1481.73
1032.522	1462.97
1032.81	1465.91
1033.099	1452.12
1033.387	1441.5
1033.675	1436.08
1033.963	1413.93
1034.251	1424.55
1034.54	1381.16
1034.828	1368.51
1035.116	1359.47
1035.403	1350.88
1035.691	1367.83
1035.979	1372.35
1036.267	1320.83
1036.554	1337.32
1036.842	1319.7
1037.129	1318.79
1037.417	1312.92
1037.704	1289.87
1037.992	1288.06
1038.279	1286.03
1038.566	1277.66
1038.853	1277.66
1039.14	1277.66
