Data from 383_FLMS001491_009.txt Node
Date: Thu Apr 19 15:42:47 BST 2018
User: hsy
Spectrometer: FLMS00149
Trigger mode: 0
Integration Time (sec): 1.000000E-2
Scans to average: 10
Electric dark correction enabled: true
Nonlinearity correction enabled: false
Boxcar width: 0
XAxis mode: Wavelengths
Number of Pixels in Spectrum: 2048
>>>>>Begin Spectral Data<<<<<
341.393	-11.81
341.776	-11.81
342.16	-11.81
342.543	-58.36
342.927	-68.08
343.31	-66.27
343.693	-78.25
344.077	-42.99
344.46	-48.87
344.843	-60.85
345.226	-38.93
345.61	-39.38
345.993	-21.75
346.376	-4.8
346.759	-5.25
347.142	29.55
347.525	43.33
347.908	63.9
348.291	83.33
348.674	96.21
349.057	91.01
349.44	132.6
349.823	132.6
350.206	164.68
350.588	235.87
350.971	248.52
351.354	269.31
351.737	281.74
352.119	273.83
352.502	297.56
352.884	315.19
353.267	303.44
353.65	314.51
354.032	341.63
354.414	354.51
354.797	342.76
355.179	353.15
355.562	362.19
355.944	383.89
356.326	363.78
356.709	365.13
357.091	372.82
357.473	361.97
357.855	371.91
358.238	379.37
358.62	403.55
359.002	380.72
359.384	380.27
359.766	381.18
360.148	371.69
360.53	400.38
360.912	378.46
361.294	378.69
361.676	385.7
362.057	409.65
362.439	386.15
362.821	377.33
363.203	400.61
363.584	357.22
363.966	371.91
364.348	381.85
364.729	358.58
365.111	351.35
365.493	378.46
365.874	365.58
366.256	380.5
366.637	370.78
367.019	370.1
367.4	378.01
367.781	361.06
368.163	364
368.544	350.22
368.925	389.76
369.306	385.47
369.688	347.73
370.069	371.23
370.45	389.54
370.831	397
371.212	394.28
371.593	380.05
371.974	369.65
372.355	382.31
372.736	391.12
373.117	395.41
373.498	369.88
373.879	381.63
374.26	382.53
374.641	385.24
375.021	379.59
375.402	404.9
375.783	398.35
376.163	417.33
376.544	376.2
376.925	391.57
377.305	431.8
377.686	382.53
378.066	413.27
378.447	393.15
378.827	416.2
379.208	409.88
379.588	420.72
379.968	408.52
380.349	418.69
380.729	424.11
381.109	406.03
381.489	404.45
381.87	402.42
382.25	441.51
382.63	416.88
383.01	419.82
383.39	415.98
383.77	447.16
384.15	428.86
384.53	437.67
384.91	454.85
385.29	447.39
385.67	438.35
386.049	467.73
386.429	445.13
386.809	442.64
387.189	434.06
387.568	462.98
387.948	496.65
388.328	464.11
388.707	476.99
389.087	474.28
389.466	488.74
389.846	483.77
390.225	467.28
390.605	477.45
390.984	485.13
391.363	495.98
391.743	486.94
392.122	503.43
392.501	533.71
392.881	540.04
393.26	495.3
393.639	533.71
394.018	515.41
394.397	527.61
394.776	524.22
395.155	522.64
395.534	526.71
395.913	531.23
396.292	541.62
396.671	561.06
397.05	538.69
397.429	540.72
397.808	547.05
398.186	545.01
398.565	565.13
398.944	553.15
399.323	553.6
399.701	575.97
400.08	566.26
400.458	567.84
400.837	561.96
401.215	598.12
401.594	603.32
401.972	597.89
402.351	608.97
402.729	584.56
403.107	613.26
403.486	598.35
403.864	622.75
404.242	600.83
404.62	623.2
404.999	642.19
405.377	648.29
405.755	626.37
406.133	625.01
406.511	625.46
406.889	627.72
407.267	666.82
407.645	660.27
408.023	670.66
408.401	678.8
408.779	665.46
409.156	679.7
409.534	685.35
409.912	698.46
410.29	708.4
410.667	728.06
411.045	722.86
411.422	732.13
411.8	730.55
412.178	725.57
412.555	757.66
412.933	757.89
413.31	778.23
413.687	769.19
414.065	783.2
414.442	783.2
414.819	800.15
415.197	789.53
415.574	822.75
415.951	799.92
416.328	835.63
416.705	810.54
417.082	826.36
417.46	820.26
417.837	846.25
418.214	860.03
418.591	832.69
418.967	871.56
419.344	848.28
419.721	862.97
420.098	863.88
420.475	891.22
420.852	878.79
421.228	894.16
421.605	896.42
421.982	940.26
422.358	926.92
422.735	934.16
423.111	921.73
423.488	921.05
423.864	922.18
424.241	914.95
424.617	959.47
424.994	982.97
425.37	1003.08
425.746	987.49
426.123	986.58
426.499	982.74
426.875	1006.24
427.251	1034.94
427.627	1045.79
428.003	1050.31
428.379	1057.54
428.756	1048.96
429.132	1074.27
429.507	1103.64
429.883	1092.12
430.259	1105.45
430.635	1111.55
431.011	1096.64
431.387	1151.1
431.763	1175.05
432.138	1181.61
432.514	1198.1
432.89	1205.34
433.265	1215.96
433.641	1232.45
434.016	1232.45
434.392	1244.66
434.767	1247.37
435.143	1242.17
435.518	1248.72
435.894	1296.86
436.269	1319.46
436.644	1327.37
437.02	1323.3
437.395	1352.68
437.77	1334.15
438.145	1359.23
438.52	1381.6
438.895	1384.09
439.271	1382.51
439.646	1425.44
440.021	1428.38
440.395	1417.76
440.77	1436.29
441.145	1428.15
441.52	1466.12
441.895	1491.88
442.27	1468.83
442.645	1449.62
443.019	1484.65
443.394	1475.38
443.769	1509.96
444.143	1505.67
444.518	1524.42
444.892	1520.81
445.267	1522.39
445.641	1526.91
446.016	1549.73
446.39	1557.64
446.764	1590.41
447.139	1575.72
447.513	1589.28
447.887	1621.14
448.262	1615.72
448.636	1637.87
449.01	1639.22
449.384	1649.39
449.758	1679
450.132	1702.05
450.506	1651.43
450.88	1704.98
451.254	1714.25
451.628	1740.24
452.002	1743.85
452.376	1751.54
452.75	1813.91
453.123	1795.15
453.497	1826.79
453.871	1816.17
454.244	1838.99
454.618	1871.08
454.992	1923.73
455.365	1917.41
455.739	1970.06
456.112	1968.71
456.486	1983.85
456.859	2001.92
457.232	2068.14
457.606	2067.91
457.979	2062.71
458.352	2132.32
458.725	2134.35
459.099	2141.58
459.472	2206.44
459.845	2245.53
460.218	2249.83
460.591	2272.2
460.964	2285.99
461.337	2299.32
461.71	2319.2
462.083	2370.95
462.456	2402.59
462.829	2395.36
463.201	2460.9
463.574	2482.36
463.947	2475.81
464.32	2529.82
464.692	2544.96
465.065	2572.31
465.438	2609.59
465.81	2615.92
466.183	2667.22
466.555	2711.74
466.928	2730.27
467.3	2699.31
467.672	2789.47
468.045	2840.55
468.417	2834.45
468.789	2879.19
469.161	2872.41
469.534	2921.67
469.906	2998.28
470.278	3015.91
470.65	3041.9
471.022	3123.7
471.394	3148.34
471.766	3153.08
472.138	3189.01
472.51	3290.48
472.882	3323.47
473.253	3361.44
473.625	3377.71
473.997	3494.09
474.369	3484.6
474.74	3543.35
475.112	3603.46
475.484	3636.01
475.855	3736.34
476.227	3763.01
476.598	3885.04
476.97	3892.5
477.341	4001.42
477.713	4061.76
478.084	4124.81
478.455	4183.56
478.827	4225.37
479.198	4359.38
479.569	4378.59
479.94	4435.99
480.311	4527.51
480.682	4669.88
481.053	4766.37
481.424	4814.51
481.795	4879.82
482.166	4936.54
482.537	4997.55
482.908	5173.82
483.279	5222.41
483.65	5347.6
484.021	5401.38
484.391	5527.93
484.762	5631.43
485.133	5674.14
485.503	5736.52
485.874	5967.7
486.244	5996.62
486.615	6086.56
486.985	6106.45
487.356	6318.87
487.726	6432.09
488.097	6641.58
488.467	6698.07
488.837	6824.4
489.207	6935.81
489.578	7092.64
489.948	7204.05
490.318	7354.55
490.688	7394.1
491.058	7630.25
491.428	7706.63
491.798	7841.77
492.168	7994.54
492.538	8158.83
492.908	8295.32
493.278	8422.55
493.648	8493.05
494.017	8736.89
494.387	8939.14
494.757	9011.46
495.126	9191.11
495.496	9276.54
495.866	9502.29
496.235	9643.53
496.605	9803.53
496.974	9917.87
497.344	10135.72
497.713	10282.61
498.082	10333.68
498.452	10577.52
498.821	10708.36
499.19	10855.25
499.559	11044.17
499.928	11185.86
500.298	11411.62
500.667	11553.31
501.036	11715.57
501.405	11916.92
501.774	12068.1
502.143	12246.85
502.512	12425.83
502.88	12616.56
503.249	12772.49
503.618	12946.27
503.987	13209.09
504.356	13374.06
504.724	13593.71
505.093	13741.73
505.462	13849.07
505.83	14108.05
506.199	14316.86
506.567	14672.33
506.936	14748.03
507.304	15057.17
507.672	15164.97
508.041	15273.89
508.409	15595.92
508.777	15783.26
509.145	16111.61
509.514	16184.83
509.882	16390.92
510.25	16504.59
510.618	16750.69
510.986	16878.82
511.354	17126.27
511.722	17392.25
512.09	17649.2
512.458	17650.55
512.826	17925.57
513.193	18123.08
513.561	18245.79
513.929	18416.18
514.297	18698.89
514.664	18924.42
515.032	19040.35
515.4	19408.7
515.767	19428.13
516.135	19691.4
516.502	19660.44
516.869	20053.65
517.237	20284.38
517.604	20248
517.972	20546.97
518.339	20721.43
518.706	20895.67
519.073	20974.08
519.44	21175.66
519.808	21482.99
520.175	21562.09
520.542	21936.09
520.909	22130.89
521.276	22111.23
521.643	22495.62
522.009	22604.32
522.376	22826.46
522.743	22883.64
523.11	23271.2
523.477	23415.15
523.843	23572.88
524.21	24005.87
524.577	24185.07
524.943	24227.1
525.31	24335.57
525.676	24679.97
526.043	24807.65
526.409	25047.87
526.776	25150.02
527.142	25401.76
527.508	25488.09
527.874	25815.54
528.241	26045.36
528.607	26060.5
528.973	26321.29
529.339	26483.31
529.705	26772.57
530.071	27032.23
530.437	27120.36
530.803	27218.89
531.169	27424.53
531.535	27561.93
531.901	27676.96
532.267	27849.38
532.632	27862.49
532.998	28050.05
533.364	28296.37
533.73	28363.04
534.095	28514.67
534.461	28553.32
534.826	28779.75
535.192	28803.48
535.557	29106.07
535.923	29169.12
536.288	29242.56
536.653	29359.4
537.019	29332.05
537.384	29492.5
537.749	29539.28
538.114	29629.9
538.479	29565.95
538.845	29758.03
539.21	29697.24
539.575	29960.74
539.94	29994.41
540.305	30099.94
540.67	30117.12
541.034	30279.15
541.399	30237.79
541.764	30438.69
542.129	30487.73
542.494	30511.01
542.858	30732.24
543.223	30514.4
543.587	30808.62
543.952	30797.1
544.316	30875.29
544.681	30785.8
545.045	31134.72
545.41	31146.7
545.774	31099.69
546.138	31089.3
546.503	31193.47
546.867	31303.08
547.231	31449.96
547.595	31504.88
547.959	31646.57
548.324	31644.76
548.688	31710.75
549.052	31776.74
549.416	31701.26
549.779	31776.96
550.143	31894.02
550.507	32120.45
550.871	32153.45
551.235	32155.03
551.599	32458.98
551.962	32434.12
552.326	32453.1
552.689	32628.01
553.053	32393.67
553.417	32544.85
553.78	32834.11
554.143	32723.38
554.507	33055.12
554.87	33086.08
555.234	33298.95
555.597	33127.66
555.96	33256.47
556.323	33317.49
556.686	33317.71
557.05	33540.76
557.413	33547.54
557.776	33720.41
558.139	33916.57
558.502	33855.55
558.865	34064.13
559.228	34311.13
559.59	34429.32
559.953	34283.34
560.316	34786.6
560.679	34810.33
561.041	34967.84
561.404	35166.02
561.767	35324.66
562.129	35102.98
562.492	35467.03
562.854	35463.64
563.217	35492.12
563.579	35679.23
563.941	35869.28
564.304	36001.26
564.666	36330.51
565.028	36212.32
565.39	36359.67
565.753	36653.89
566.115	36732.31
566.477	36735.93
566.839	36950.61
567.201	37238.29
567.563	37215.46
567.925	37545.17
568.287	37608.45
568.648	37577.71
569.01	37833.75
569.372	37994.2
569.734	37878.27
570.095	38228.99
570.457	38416.56
570.819	38492.26
571.18	38478.48
571.542	38772.94
571.903	38710.56
572.265	38873.27
572.626	39014.06
572.987	39014.96
573.349	39208.86
573.71	39201.4
574.071	39478.45
574.432	39600.03
574.794	39735.17
575.155	39670.09
575.516	39671.22
575.877	39687.26
576.238	39904.43
576.599	39970.64
576.96	39998.67
577.32	40048.83
577.681	40092.9
578.042	40350.29
578.403	40288.83
578.763	40327.24
579.124	40325.66
579.485	40488.6
579.845	40591.87
580.206	40543.74
580.566	40668.03
580.927	40615.15
581.287	40837.97
581.648	40643.17
582.008	40624.19
582.368	40789.61
582.728	40715.26
583.089	40689.95
583.449	40673.9
583.809	40716.61
584.169	40811.75
584.529	40826.21
584.889	41051.52
585.249	40747.12
585.609	40638.2
585.969	40811.07
586.329	40741.92
586.688	40818.98
587.048	40739.44
587.408	40748.7
587.768	40738.08
588.127	40699.21
588.487	40505.55
588.846	41009.71
589.206	40536.28
589.565	40596.39
589.925	40905.53
590.284	40638.42
590.643	40722.26
591.003	40796.38
591.362	40931.3
591.721	40735.14
592.08	40738.08
592.44	40802.94
592.799	40673.68
593.158	40723.84
593.517	40599.1
593.876	40789.38
594.235	40763.84
594.593	40626.22
594.952	40937.4
595.311	40697.63
595.67	40755.03
596.029	40784.41
596.387	40896.5
596.746	41078.64
597.104	40745.31
597.463	40851.75
597.822	40841.13
598.18	40793.9
598.538	40796.84
598.897	40968.13
599.255	40730.17
599.613	41132.2
599.972	40997.74
600.33	41022.14
600.688	40791.19
601.046	40957.74
601.404	41259.42
601.762	41042.93
602.12	41100.56
602.478	41082.25
602.836	41237.05
603.194	40862.82
603.552	41172.65
603.91	41049.03
604.268	41217.84
604.625	41137.84
604.983	41335.13
605.341	41162.25
605.698	41421.45
606.056	41528.57
606.413	41332.87
606.771	41495.35
607.128	41447.44
607.485	41357.95
607.843	41391.17
608.2	41639.07
608.557	41712.52
608.914	41534.44
609.272	41780.99
609.629	41846.07
609.986	41811.73
610.343	41983.92
610.7	42237.25
611.057	42176.46
611.414	42161.55
611.771	42284.48
612.127	42468.21
612.484	42354.99
612.841	42604.02
613.198	42308.44
613.554	42410.81
613.911	42797.01
614.267	42642.66
614.624	42624.59
614.98	42672.04
615.337	42866.84
615.693	42805.37
616.05	42899.61
616.406	43021.86
616.762	42899.61
617.118	42948.42
617.475	42974.41
617.831	43066.16
618.187	43115.65
618.543	43181.86
618.899	43405.81
619.255	43207.39
619.611	43276.77
619.967	43393.38
620.323	43753.82
620.678	43449.65
621.034	43552.02
621.39	43514.51
621.746	43377.33
622.101	43773.48
622.457	43475.86
622.812	43768.96
623.168	43675.18
623.523	43536.88
623.879	43799.24
624.234	43565.35
624.589	43745.01
624.945	43757.89
625.3	43759.7
625.655	43830.43
626.01	43897.55
626.365	43853.71
626.72	43867.49
627.075	43735.29
627.43	43780.49
627.785	43886.02
628.14	43612.36
628.495	43805.57
628.85	43694.61
629.205	43648.29
629.559	43838.79
629.914	43634.95
630.269	43660.49
630.623	43480.61
630.978	43326.94
631.332	43723.99
631.687	43714.05
632.041	43443.32
632.396	43448.52
632.75	43349.09
633.104	43449.65
633.459	43409.88
633.813	43248.52
634.167	43171.24
634.521	43099.83
634.875	43355.19
635.229	43131.92
635.583	42816.9
635.937	42972.37
636.291	42907.97
636.645	42911.13
636.999	42750.23
637.352	43011.92
637.706	42612.61
638.06	42883.79
638.413	42737.12
638.767	42531.03
639.121	42730.8
639.474	42343.46
639.828	42391.37
640.181	42435.21
640.534	42466.4
640.888	42339.17
641.241	42025.73
641.594	42213.75
641.947	42315.22
642.301	42116.35
642.654	42158.38
643.007	41992.51
643.36	42152.96
643.713	42026.41
644.066	42137.37
644.419	41819.63
644.771	41599.08
645.124	41006.32
645.477	41231.63
645.83	41104.63
646.182	40905.53
646.535	40975.82
646.888	41154.79
647.24	40863.95
647.593	41000.9
647.945	40821.47
648.298	40787.57
648.65	40575.83
649.002	40326.11
649.355	40260.58
649.707	40119.11
650.059	40085.44
650.411	40673
650.763	40923.61
651.115	41548.23
651.467	41413.54
651.819	41256.03
652.171	41260.1
652.523	41059.88
652.875	41233.44
653.227	41145.08
653.578	41379.19
653.93	41193.89
654.282	40988.7
654.633	41094.46
654.985	41139.65
655.337	41183.72
655.688	41033.67
656.039	41055.59
656.391	40811.75
656.742	40947.57
657.094	40864.86
657.445	40946.89
657.796	41013.78
658.147	40930.62
658.498	41047
658.849	41078.41
659.2	40945.53
659.551	40755.71
659.902	41059.88
660.253	40897.17
660.604	40966.55
660.955	40865.08
661.306	41028.7
661.656	40855.14
662.007	40896.04
662.358	41052.42
662.708	41018.53
663.059	40912.09
663.409	40740.79
663.76	40981.01
664.11	40978.3
664.461	41165.64
664.811	41050.62
665.161	41113.89
665.511	40921.13
665.862	41037.73
666.212	41028.7
666.562	41174.91
666.912	41043.38
667.262	40957.28
667.612	40878.42
667.962	40951.18
668.312	40949.15
668.662	41051.97
669.011	41154.12
669.361	40971.3
669.711	41044.97
670.06	40895.37
670.41	40871.41
670.76	40881.35
671.109	40985.76
671.459	40952.99
671.808	40935.14
672.157	40928.13
672.507	40731.98
672.856	40740.12
673.205	40729.72
673.554	40755.26
673.904	40625.54
674.253	40891.75
674.602	40743.05
674.951	40160.7
675.3	39983.52
675.649	40614.47
675.998	40713
676.346	40579.67
676.695	40620.8
677.044	40436.39
677.393	40473.23
677.741	40686.11
678.09	40470.74
678.438	40441.37
678.787	40452.67
679.135	40426.23
679.484	40035.95
679.832	40285.66
680.181	40303.52
680.529	40153.69
680.877	40108.72
681.225	40084.09
681.573	40274.36
681.922	39920.93
682.27	39840.25
682.618	39766.81
682.966	39732.91
683.314	39820.14
683.661	39806.81
684.009	39482.75
684.357	39418.57
684.705	39308.74
685.053	39516.87
685.4	39191
685.748	39122.08
686.095	39141.29
686.443	38938.35
686.79	39045.92
687.138	38956.66
687.485	38919.82
687.832	38745.82
688.18	38801.41
688.527	38657.68
688.874	38569.55
689.221	38346.05
689.568	38180.41
689.915	38210.24
690.262	38235.32
690.609	38125.04
690.956	37972.5
691.303	38029
691.65	37745.62
691.997	37667.88
692.344	37472.86
692.69	37439.19
693.037	37409.36
693.383	37125.3
693.73	37323.26
694.077	37081.91
694.423	36921.23
694.769	36824.51
695.116	36789.48
695.462	36544.97
695.808	36387.01
696.155	36704.52
696.501	36257.52
696.847	36312.89
697.193	36106.56
697.539	36091.2
697.885	35718.33
698.231	35645.79
698.577	35693.47
698.923	35667.48
699.269	35375.96
699.614	35283.54
699.96	35055.97
700.306	35100.94
700.651	34979.81
700.997	34830.67
701.342	34791.12
701.688	34672.25
702.033	34468.42
702.379	34496.44
702.724	34175.77
703.069	34255.99
703.415	33948.88
703.76	33799.73
704.105	33907.75
704.45	33825.95
704.795	33594.54
705.14	33467.09
705.485	33460.08
705.83	33182.57
706.175	33308.45
706.52	33159.07
706.865	33047.66
707.209	32999.75
707.554	32785.97
707.899	32869.36
708.243	32719.99
708.588	32571.06
708.932	32475.7
709.277	32557.51
709.621	32291.75
709.966	32211.53
710.31	32245.2
710.654	31987.8
710.998	32088.82
711.342	32051.53
711.687	31827.13
712.031	31873.91
712.375	31693.57
712.719	31673.69
713.063	31609.73
713.407	31832.55
713.75	31564.76
714.094	31609.06
714.438	31283.41
714.782	31364.54
715.125	31181.72
715.469	31387.37
715.812	31167.94
716.156	31038.45
716.499	31119.13
716.843	31009.52
717.186	30893.14
717.53	31056.53
717.873	30934.27
718.216	30847.72
718.559	30764.11
718.902	30563.43
719.246	30532.7
719.589	30417.9
719.932	30452.93
720.275	30480.27
720.617	30579.7
720.96	30431.01
721.303	30438.47
721.646	30501.51
721.989	30368.86
722.331	30446.6
722.674	30223.1
723.016	30225.14
723.359	30138.36
723.701	30121.19
724.044	30160.28
724.386	30044.58
724.729	30058.14
725.071	30066.27
725.413	29995.76
725.755	30052.71
726.097	29857.69
726.439	29910.8
726.782	29789.89
727.124	29893.85
727.465	29896.78
727.807	29825.6
728.149	29773.62
728.491	29687.52
728.833	29805.04
729.175	29727.98
729.516	29691.59
729.858	29743.34
730.199	29892.04
730.541	29721.2
730.882	29673.29
731.224	29730.91
731.565	29579.5
731.906	29612.05
732.248	29591.71
732.589	29584.7
732.93	29558.49
733.271	29550.8
733.612	29648.2
733.953	29719.84
734.294	29546.96
734.635	29481.65
734.976	29597.81
735.317	29593.74
735.658	29539.51
735.999	29498.83
736.339	29452.95
736.68	29493.41
737.021	29479.39
737.361	29366.18
737.702	29679.16
738.042	29635.55
738.383	29633.06
738.723	29695.66
739.063	29490.47
739.404	29541.99
739.744	29517.81
740.084	29581.76
740.424	29680.75
740.764	29574.08
741.104	29722.78
741.444	29595.1
741.784	29673.06
742.124	29730.91
742.464	29741.53
742.804	29693.85
743.143	29683.23
743.483	29788.09
743.823	29728.65
744.162	29781.76
744.502	29890.68
744.841	29784.92
745.181	29949.44
745.52	29880.06
745.86	29904.92
746.199	29863.79
746.538	29941.76
746.877	30134.52
747.216	30143.56
747.556	30153.73
747.895	30159.15
748.234	30227.62
748.573	30248.19
748.911	30167.06
749.25	30257.68
749.589	30181.3
749.928	30551.46
750.267	30532.47
750.605	30484.79
750.944	30645.01
751.283	30674.84
751.621	30766.14
751.96	30739.93
752.298	30708.97
752.636	30813.14
752.975	30834.61
753.313	30934.5
753.651	31018.11
753.989	30914.61
754.327	30986.25
754.666	30892.24
755.004	31231.66
755.342	31165
755.679	31165.23
756.017	31146.7
756.355	31347.14
756.693	31296.52
757.031	31468.49
757.368	31324.54
757.706	31424.2
758.044	31455.16
758.381	31407.03
758.719	31480.25
759.056	31561.83
759.394	31594.59
759.731	31352.11
760.068	31413.81
760.405	31463.75
760.743	31404.77
761.08	31591.66
761.417	31474.82
761.754	31549.62
762.091	31467.36
762.428	31216.98
762.765	31405.45
763.102	31394.37
763.438	31437.31
763.775	31240.7
764.112	31212
764.449	31440.92
764.785	31374.94
765.122	31278.9
765.458	31222.85
765.795	31247.71
766.131	31233.02
766.467	31077.09
766.804	30973.14
767.14	30921.84
767.476	30954.84
767.812	30887.04
768.148	30934.05
768.485	30905.12
768.821	30603.66
769.157	30786.7
769.492	30580.83
769.828	30523.66
770.164	30444.79
770.5	30402.53
770.836	30525.92
771.171	30266.04
771.507	30276.44
771.842	30118.02
772.178	30098.14
772.513	30048.42
772.849	29947.4
773.184	29882.32
773.519	29847.52
773.855	29697.47
774.19	29654.98
774.525	29559.62
774.86	29505.83
775.195	29535.21
775.53	29331.6
775.865	29208.22
776.2	29028.78
776.535	28831.73
776.87	28833.76
777.205	28721.45
777.539	28630.83
777.874	28723.93
778.209	28432.64
778.543	28577.95
778.878	28437.16
779.212	28344.28
779.547	28176.6
779.881	28128.24
780.215	28059.54
780.55	28049.15
780.884	27784.75
781.218	27770.06
781.552	27992.43
781.886	27551.31
782.22	27482.16
782.554	27380.47
782.888	27196.74
783.222	27212.56
783.556	27027.71
783.889	27006.24
784.223	26853.25
784.557	26811.44
784.89	26822.52
785.224	26695.29
785.557	26575.06
785.891	26513.6
786.224	26420.27
786.558	26462.3
786.891	26206.71
787.224	26144.11
787.557	25987.51
787.891	26012.37
788.224	25744.35
788.557	25727.85
788.89	25830
789.223	25704.35
789.556	25509.78
789.888	25547.75
790.221	25415.09
790.554	25226.17
790.887	25172.84
791.219	25194.54
791.552	25104.37
791.884	24967.65
792.217	25003.35
792.549	24863.7
792.882	24609.01
793.214	24614.66
793.546	24567.66
793.879	24387.78
794.211	24369.47
794.543	24449.02
794.875	24277.5
795.207	24234.79
795.539	24119.76
795.871	24160.44
796.203	24050.61
796.535	23825.08
796.867	23819.2
797.198	23706.66
797.53	23834.8
797.862	23533.56
798.193	23654.69
798.525	23520.23
798.856	23364.07
799.188	23212.44
799.519	23138.32
799.85	23030.98
800.182	23033.24
800.513	23025.78
800.844	22679.12
801.175	22917.08
801.506	22906.69
801.837	22674.38
802.168	22685.9
802.499	22695.84
802.83	22529.75
803.161	22449.07
803.491	22377.43
803.822	22493.82
804.153	22324.33
804.483	22231.68
804.814	22094.05
805.145	22078.01
805.475	22082.53
805.805	21998.01
806.136	21946.49
806.466	21876.66
806.796	21831.23
807.126	21781.07
807.457	21718.47
807.787	21686.6
808.117	21631.69
808.447	21548.3
808.777	21706.72
809.107	21466.27
809.436	21438.7
809.766	21391.7
810.096	21346.27
810.426	21211.59
810.755	21212.72
811.085	21120.07
811.414	21175.43
811.744	21040.07
812.073	21120.52
812.403	20962.56
812.732	20891.15
813.061	20914.42
813.39	20748.32
813.719	20747.19
814.049	20844.59
814.378	20729.34
814.707	20596.92
815.036	20569.35
815.365	20435.79
815.693	20413.19
816.022	20358.05
816.351	20342.46
816.68	20232.41
817.008	20333.42
817.337	20112.64
817.665	20198.51
817.994	20160.77
818.322	20275.34
818.651	20003.03
818.979	19924.84
819.307	19968.68
819.636	19900.89
819.964	19857.27
820.292	19946.99
820.62	19906.31
820.948	19994.22
821.276	19988.8
821.604	19838.52
821.932	19966.2
822.259	19903.6
822.587	19874.9
822.915	19795.36
823.243	19919.19
823.57	19919.19
823.898	19931.62
824.225	19715.81
824.553	19669.26
824.88	19707.9
825.207	19882.81
825.535	19770.27
825.862	19905.18
826.189	19768.46
826.516	19881.23
826.843	19873.32
827.17	19964.39
827.497	19828.12
827.824	19897.27
828.151	19915.35
828.478	19803.49
828.805	19950.61
829.131	19852.08
829.458	19964.39
829.785	19745.64
830.111	19862.02
830.438	19851.85
830.764	19797.84
831.09	19869.03
831.417	19659.54
831.743	19824.06
832.069	19778.41
832.395	19725.3
832.722	19854.56
833.048	19681.91
833.374	19757.16
833.7	19644.4
834.026	19766.43
834.351	19697.28
834.677	19720.33
835.003	19708.8
835.329	19670.61
835.654	19588.81
835.98	19419.55
836.306	19591.74
836.631	19515.36
836.956	19675.13
837.282	19638.3
837.607	19468.81
837.932	19548.13
838.258	19516.04
838.583	19460.9
838.908	19375.25
839.233	19462.71
839.558	19394.01
839.883	19372.77
840.208	19307.68
840.533	19274.24
840.858	19339.1
841.182	19295.71
841.507	19185.65
841.832	19082.38
842.156	19173.9
842.481	19265.43
842.805	19126.67
843.13	19042.61
843.454	19066.79
843.778	18918.54
844.103	18932.55
844.427	18881.25
844.751	18888.03
845.075	18821.14
845.399	18765.78
845.723	18780.69
846.047	18759.45
846.371	18641.26
846.695	18577.99
847.019	18458.89
847.343	18407.14
847.666	18298.67
847.99	18304.32
848.313	18187.26
848.637	18196.53
848.96	17967.38
849.284	18041.28
849.607	17888.96
849.931	17886.93
850.254	17772.36
850.577	17695.98
850.9	17555.41
851.223	17535.53
851.546	17571.68
851.869	17454.17
852.192	17481.29
852.515	17253.5
852.838	17248.08
853.161	17205.14
853.483	17018.48
853.806	17091.25
854.129	16907.52
854.451	17025.03
854.774	16792.27
855.096	16771.93
855.419	16742.78
855.741	16682.89
856.063	16591.82
856.385	16517.93
856.708	16503.69
857.03	16459.17
857.352	16535.55
857.674	16408.1
857.996	16337.82
858.318	16327.2
858.64	16239.97
858.961	16191.16
859.283	16118.39
859.605	16007.21
859.926	16114.77
860.248	16034.78
860.57	15920.88
860.891	15982.35
861.212	15884.05
861.534	15851.5
861.855	15701
862.176	15783.03
862.498	15712.75
862.819	15741.9
863.14	15674.33
863.461	15745.74
863.782	15565.86
864.103	15644.96
864.424	15562.47
864.745	15640.89
865.065	15509.37
865.386	15407
865.707	15436.37
866.027	15369.71
866.348	15381.23
866.668	15341.46
866.989	15355.92
867.309	15252.88
867.63	15298.98
867.95	15281.8
868.27	15110.28
868.59	15269.37
868.91	15218.75
869.23	15123.39
869.55	15078.42
869.87	15174.91
870.19	15039.77
870.51	15073.45
870.83	15064.63
871.15	15006.1
871.469	14923.17
871.789	14928.82
872.109	14993
872.428	14862.83
872.748	14906.9
873.067	14815.37
873.386	14842.49
873.706	14895.82
874.025	14840.91
874.344	14717.75
874.663	14770.18
874.982	14683.4
875.301	14646.56
875.62	14582.84
875.939	14619.45
876.258	14687.01
876.577	14488.38
876.896	14588.03
877.214	14522.95
877.533	14474.59
877.852	14490.86
878.17	14539.45
878.489	14492.9
878.807	14438.21
879.125	14475.95
879.444	14398.43
879.762	14408.83
880.08	14393.24
880.398	14338.1
880.716	14315.27
881.034	14234.82
881.352	14351.66
881.67	14157.31
881.988	14279.12
882.306	14203.19
882.624	14112.79
882.941	14125.45
883.259	13992.12
883.577	14046.58
883.894	13922.97
884.212	13918.67
884.529	13909.41
884.846	13863.99
885.164	13865.57
885.481	13838.9
885.798	13878.67
886.115	13678
886.432	13807.49
886.75	13711.67
887.067	13732.92
887.383	13624.67
887.7	13675.06
888.017	13573.15
888.334	13602.3
888.651	13522.53
888.967	13486.14
889.284	13380.16
889.6	13326.37
889.917	13269.65
890.233	13339.71
890.55	13243.21
890.866	13205.92
891.182	13280.27
891.498	13220.16
891.815	13133.84
892.131	13078.7
892.447	13088.41
892.763	12977.46
893.079	13007.06
893.395	12950.79
893.71	12847.29
894.026	12856.78
894.342	12879.38
894.657	12808.19
894.973	12679.61
895.289	12701.3
895.604	12644.36
895.92	12578.37
896.235	12596.9
896.55	12531.59
896.865	12528.88
897.181	12482.1
897.496	12485.04
897.811	12438.03
898.126	12390.35
898.441	12374.76
898.756	12223.58
899.071	12251.37
899.386	12215.89
899.7	12138.38
900.015	12060.87
900.33	11935.67
900.644	11971.61
900.959	11940.19
901.273	11854.1
901.588	11873.76
901.902	11816.58
902.216	11853.19
902.531	11728.67
902.845	11722.12
903.159	11619.98
903.473	11649.13
903.787	11510.83
904.101	11531.84
904.415	11489.36
904.729	11425.63
905.042	11363.26
905.356	11396.25
905.67	11386.99
905.984	11312.87
906.297	11269.93
906.611	11142.93
906.924	11183.15
907.237	11165.3
907.551	11111.97
907.864	11065.42
908.177	11000.56
908.491	11002.37
908.804	10913.78
909.117	10815.48
909.43	10830.39
909.743	10732.32
910.056	10754.01
910.368	10754.01
910.681	10676.5
910.994	10528.93
911.307	10548.59
911.619	10455.94
911.932	10533.9
912.244	10409.16
912.557	10398.99
912.869	10302.72
913.181	10318.54
913.494	10315.6
913.806	10171.43
914.118	10173.46
914.43	10155.38
914.742	10102.05
915.054	10044.2
915.366	10031.54
915.678	9978.66
915.99	9987.25
916.302	9901.38
916.613	9835.39
916.925	9885.33
917.236	9893.47
917.548	9773.02
917.859	9714.49
918.171	9645.11
918.482	9562.63
918.794	9586.58
919.105	9566.02
919.416	9483.54
919.727	9492.35
920.038	9472.46
920.349	9370.32
920.66	9365.8
920.971	9338.46
921.282	9325.12
921.593	9158.8
921.903	9203.32
922.214	9146.82
922.525	9105.69
922.835	9069.08
923.146	9028.41
923.456	9043.77
923.767	8910.67
924.077	8931.01
924.387	8938.47
924.697	8860.73
925.008	8846.04
925.318	8712.71
925.628	8791.58
925.938	8756.32
926.248	8684.46
926.558	8630
926.867	8589.55
927.177	8604.69
927.487	8471.59
927.796	8440.63
928.106	8453.96
928.416	8411.47
928.725	8400.17
929.034	8333.06
929.344	8275.21
929.653	8280.86
929.962	8269.1
930.271	8153.4
930.581	8183.91
930.89	8100.3
931.199	8087.41
931.508	8090.8
931.817	8062.1
932.125	8035.66
932.434	7996.57
932.743	7903.24
933.051	7833.18
933.36	7739.63
933.669	7742.56
933.977	7765.84
934.286	7799.29
934.594	7693.07
934.902	7688.1
935.21	7677.93
935.519	7606.75
935.827	7604.94
936.135	7533.98
936.443	7465.51
936.751	7445.85
937.059	7461.22
937.367	7361.78
937.674	7364.95
937.982	7357.94
938.29	7319.53
938.597	7352.74
938.905	7184.61
939.213	7179.64
939.52	7147.1
939.827	7173.99
940.135	7099.64
940.442	7069.81
940.749	7057.39
941.056	7092.64
941.363	7037.27
941.67	6963.83
941.977	6968.12
942.284	6897.39
942.591	6896.03
942.898	6870.95
943.205	6864.17
943.511	6830.5
943.818	6801.57
944.125	6684.74
944.431	6672.76
944.738	6681.58
945.044	6648.58
945.35	6604.52
945.657	6634.12
945.963	6589.83
946.269	6527.23
946.575	6520.68
946.881	6487
947.187	6487
947.493	6411.07
947.799	6416.72
948.105	6403.84
948.41	6309.83
948.716	6308.7
949.022	6253.11
949.327	6313.45
949.633	6245.2
949.938	6216.96
950.244	6254.69
950.549	6171.76
950.854	6147.58
951.16	6089.73
951.465	6044.76
951.77	6045.89
952.075	6039.56
952.38	5982.16
952.685	5981.26
952.99	5824.42
953.294	5945.55
953.599	5878.43
953.904	5841.6
954.209	5781.71
954.513	5821.49
954.818	5850.64
955.122	5845.67
955.426	5722.73
955.731	5694.03
956.035	5660.36
956.339	5697.19
956.643	5610.64
956.948	5591.66
957.252	5549.4
957.556	5586.92
957.86	5513.47
958.163	5532.45
958.467	5456.98
958.771	5477.77
959.075	5463.53
959.378	5412.68
959.682	5406.36
959.985	5368.84
960.289	5381.27
960.592	5291.1
960.896	5279.58
961.199	5247.72
961.502	5237.77
961.805	5248.39
962.108	5187.38
962.411	5172.91
962.714	5188.51
963.017	5128.17
963.32	5111.9
963.623	5087.27
963.926	5103.99
964.228	5080.26
964.531	5040.71
964.833	5013.37
965.136	4993.94
965.438	4986.93
965.741	4910.77
966.043	4902.87
966.345	4942.19
966.648	4859.7
966.95	4835.3
967.252	4790.78
967.554	4825.35
967.856	4805.47
968.158	4753.26
968.46	4744.23
968.761	4742.19
969.063	4714.62
969.365	4650.89
969.666	4671.46
969.968	4600.95
970.269	4595.98
970.571	4621.06
970.872	4601.4
971.174	4563.89
971.475	4534.29
971.776	4497.45
972.077	4470.33
972.378	4502.42
972.679	4421.3
972.98	4426.95
973.281	4398.47
973.582	4393.73
973.883	4396.66
974.183	4389.88
974.484	4314.86
974.785	4333.84
975.085	4346.72
975.386	4304.92
975.686	4320.96
975.986	4233.28
976.287	4257.68
976.587	4218.82
976.887	4243.22
977.187	4163.68
977.487	4191.02
977.787	4134.07
978.087	4144.92
978.387	4107.86
978.687	4055.88
978.987	4065.15
979.286	4057.46
979.586	4047.29
979.885	4028.76
980.185	3970.01
980.484	3961.87
980.784	3986.28
981.083	3882.1
981.382	3933.85
981.682	3953.96
981.981	3876.9
982.28	3839.16
982.579	3848.43
982.878	3826.06
983.177	3814.08
983.475	3799.17
983.774	3772.05
984.073	3759.17
984.372	3747.87
984.67	3719.85
984.969	3730.47
985.267	3712.39
985.566	3659.73
985.864	3644.37
986.162	3664.93
986.461	3640.3
986.759	3628.55
987.057	3544.26
987.355	3560.98
987.653	3587.87
987.951	3512.17
988.249	3501.09
988.547	3552.62
988.844	3523.69
989.142	3514.2
989.44	3489.8
989.737	3468.55
990.035	3443.92
990.332	3438.27
990.63	3451.38
990.927	3404.83
991.224	3390.36
991.521	3378.61
991.819	3392.62
992.116	3344.49
992.413	3271.5
992.71	3257.71
993.006	3273.53
993.303	3265.85
993.6	3269.91
993.897	3243.93
994.193	3250.03
994.49	3189.01
994.787	3221.33
995.083	3178.17
995.379	3107.88
995.676	3140.65
995.972	3126.64
996.268	3121.67
996.565	3093.42
996.861	3101.78
997.157	3057.94
997.453	3025.17
997.749	3073.76
998.044	2971.16
998.34	3007.32
998.636	2964.16
998.932	2949.47
999.227	2929.36
999.523	2902.92
999.818	2887.33
1000.114	2921.9
1000.409	2865.63
1000.704	2856.37
1001	2823.82
1001.295	2834.67
1001.59	2791.73
1001.885	2809.14
1002.18	2806.42
1002.475	2789.02
1002.77	2736.37
1003.065	2750.38
1003.359	2728.01
1003.654	2677.84
1003.949	2718.97
1004.243	2701.79
1004.538	2688.69
1004.832	2639.65
1005.127	2669.93
1005.421	2612.3
1005.715	2607.56
1006.009	2577.28
1006.304	2578.18
1006.598	2594
1006.892	2568.24
1007.186	2530.72
1007.48	2514.23
1007.773	2498.63
1008.067	2502.02
1008.361	2500.44
1008.655	2457.96
1008.948	2466.77
1009.242	2442.37
1009.535	2405.76
1009.829	2424.74
1010.122	2386.55
1010.415	2391.52
1010.708	2380.9
1011.001	2358.3
1011.295	2306.1
1011.588	2336.83
1011.881	2310.39
1012.173	2292.31
1012.466	2289.6
1012.759	2273.56
1013.052	2260.22
1013.344	2248.92
1013.637	2221.81
1013.93	2222.94
1014.222	2173.45
1014.514	2189.49
1014.807	2185.87
1015.099	2173.9
1015.391	2172.09
1015.683	2135.25
1015.976	2154.24
1016.268	2110.62
1016.56	2080.11
1016.851	2081.02
1017.143	2070.4
1017.435	2048.48
1017.727	2028.82
1018.018	2021.81
1018.31	2040.12
1018.602	1977.07
1018.893	1998.76
1019.185	1950.85
1019.476	1965.54
1019.767	1952.89
1020.058	1944.07
1020.35	1944.07
1020.641	1942.94
1020.932	1872.21
1021.223	1894.13
1021.514	1869.27
1021.804	1853.23
1022.095	1852.55
1022.386	1836.05
1022.677	1840.8
1022.967	1807.81
1023.258	1798.77
1023.548	1792.44
1023.839	1810.97
1024.129	1762.38
1024.419	1750.18
1024.709	1721.25
1025	1729.84
1025.29	1719.22
1025.58	1692.33
1025.87	1684.19
1026.16	1657.08
1026.449	1667.24
1026.739	1646.23
1027.029	1665.89
1027.319	1660.46
1027.608	1629.51
1027.898	1621.6
1028.187	1593.57
1028.477	1604.87
1028.766	1568.04
1029.055	1578.89
1029.344	1540.69
1029.634	1529.17
1029.923	1523.07
1030.212	1541.15
1030.501	1524.65
1030.79	1506.12
1031.078	1504.31
1031.367	1476.06
1031.656	1511.09
1031.945	1476.97
1032.233	1471.54
1032.522	1501.15
1032.81	1438.32
1033.099	1415.05
1033.387	1413.01
1033.675	1373.92
1033.963	1389.74
1034.251	1380.7
1034.54	1349.96
1034.828	1366.91
1035.116	1342.96
1035.403	1345.22
1035.691	1337.76
1035.979	1342.73
1036.267	1308.16
1036.554	1325.56
1036.842	1329.63
1037.129	1301.83
1037.417	1281.04
1037.704	1271.1
1037.992	1276.75
1038.279	1262.96
1038.566	1276.75
1038.853	1276.75
1039.14	1276.75
