Data from 383_FLMS001491_004.txt Node
Date: Thu Apr 19 15:42:34 BST 2018
User: hsy
Spectrometer: FLMS00149
Trigger mode: 0
Integration Time (sec): 1.000000E-2
Scans to average: 10
Electric dark correction enabled: true
Nonlinearity correction enabled: false
Boxcar width: 0
XAxis mode: Wavelengths
Number of Pixels in Spectrum: 2048
>>>>>Begin Spectral Data<<<<<
341.393	3.98
341.776	3.98
342.16	3.98
342.543	-49.12
342.927	-54.55
343.31	-67.2
343.693	-66.07
344.077	-62
344.46	-62.46
344.843	-62.68
345.226	-49.12
345.61	-33.08
345.993	-12.74
346.376	-28.11
346.759	24.1
347.142	35.17
347.525	42.85
347.908	54.38
348.291	85.79
348.674	93.02
349.057	108.16
349.44	127.82
349.823	133.92
350.206	164.66
350.588	227.93
350.971	241.04
351.354	240.81
351.737	266.12
352.119	292.11
352.502	299.34
352.884	276.29
353.267	317.87
353.65	312.9
354.032	326.69
354.414	363.97
354.797	344.99
355.179	355.39
355.562	353.8
355.944	367.36
356.326	356.97
356.709	367.82
357.091	362.84
357.473	365.56
357.855	362.39
358.238	379.79
358.62	375.5
359.002	381.15
359.384	384.09
359.766	389.28
360.148	377.98
360.53	392.67
360.912	373.92
361.294	352.67
361.676	360.13
362.057	354.71
362.439	362.62
362.821	361.04
363.203	373.69
363.584	361.26
363.966	378.89
364.348	364.43
364.729	374.82
365.111	367.36
365.493	357.42
365.874	359.23
366.256	367.82
366.637	343.18
367.019	358.78
367.4	360.81
367.781	377.08
368.163	362.17
368.544	363.3
368.925	356.06
369.306	378.66
369.688	365.56
370.069	374.59
370.45	370.3
370.831	357.42
371.212	362.84
371.593	370.98
371.974	362.39
372.355	373.46
372.736	397.42
373.117	357.42
373.498	377.08
373.879	361.26
374.26	364.43
374.641	364.65
375.021	387.02
375.402	375.5
375.783	396.06
376.163	408.04
376.544	387.93
376.925	373.92
377.305	390.19
377.686	401.49
378.066	393.13
378.447	389.96
378.827	397.42
379.208	401.26
379.588	413.46
379.968	419.11
380.349	392.67
380.729	385.22
381.109	412.79
381.489	422.95
381.87	423.41
382.25	407.59
382.63	392.9
383.01	420.47
383.39	417.98
383.77	423.18
384.15	423.63
384.53	424.54
384.91	434.93
385.29	440.13
385.67	439.9
386.049	461.37
386.429	436.74
386.809	449.39
387.189	463.18
387.568	458.66
387.948	436.06
388.328	458.66
388.707	451.88
389.087	429.06
389.466	468.15
389.846	472.67
390.225	466.12
390.605	463.41
390.984	476.51
391.363	467.02
391.743	494.37
392.122	477.19
392.501	479.45
392.881	493.24
393.26	513.35
393.639	490.07
394.018	493.01
394.397	497.76
394.776	493.24
395.155	508.38
395.534	487.59
395.913	516.29
396.292	508.15
396.671	512.9
397.05	517.87
397.429	515.38
397.808	526
398.186	534.14
398.565	533.23
398.944	551.99
399.323	541.14
399.701	514.7
400.08	541.6
400.458	546.57
400.837	560.13
401.215	542.5
401.594	563.06
401.972	566
402.351	548.38
402.729	561.93
403.107	560.35
403.486	578.88
403.864	588.6
404.242	592.44
404.62	592.22
404.999	591.54
405.377	573.69
405.755	609.16
406.133	609.16
406.511	604.19
406.889	614.81
407.267	625.66
407.645	616.17
408.023	620.46
408.401	629.96
408.779	636.73
409.156	669.05
409.534	656.17
409.912	644.64
410.29	648.49
410.667	668.82
411.045	664.98
411.422	678.99
411.8	696.62
412.178	701.82
412.555	685.09
412.933	697.52
413.31	706.56
413.687	728.26
414.065	717.86
414.442	733.46
414.819	755.38
415.197	731.42
415.574	752.21
415.951	763.51
416.328	774.81
416.705	764.41
417.082	757.18
417.46	796.5
417.837	773.68
418.214	818.2
418.591	796.5
418.967	792.21
419.344	806.22
419.721	800.57
420.098	836.73
420.475	815.49
420.852	823.17
421.228	823.4
421.605	824.98
421.982	860.23
422.358	844.64
422.735	849.38
423.111	853.23
423.488	877.18
423.864	881.02
424.241	897.52
424.617	878.08
424.994	891.19
425.37	901.13
425.746	904.75
426.123	931.64
426.499	937.29
426.875	943.17
427.251	967.12
427.627	963.28
428.003	958.53
428.379	970.96
428.756	970.96
429.132	1011.87
429.507	998.53
429.883	1018.65
430.259	1022.26
430.635	1044.86
431.011	1018.65
431.387	1065.42
431.763	1077.4
432.138	1051.19
432.514	1117.63
432.89	1086.44
433.265	1116.5
433.641	1151.52
434.016	1106.78
434.392	1153.11
434.767	1161.01
435.143	1151.52
435.518	1181.58
435.894	1190.62
436.269	1207.57
436.644	1210.05
437.02	1218.87
437.395	1226.55
437.77	1242.82
438.145	1264.74
438.52	1239.2
438.895	1282.82
439.271	1267.23
439.646	1284.63
440.021	1314.68
440.395	1299.77
440.77	1311.29
441.145	1357.62
441.52	1323.04
441.895	1341.35
442.27	1343.61
442.645	1364.85
443.019	1352.65
443.394	1357.17
443.769	1358.98
444.143	1359.2
444.518	1397.39
444.892	1397.84
445.267	1375.92
445.641	1420.89
446.016	1425.19
446.39	1439.2
446.764	1447.56
447.139	1432.42
447.513	1474
447.887	1469.48
448.262	1449.14
448.636	1482.36
449.01	1467
449.384	1528.01
449.758	1534.56
450.132	1510.16
450.506	1575.92
450.88	1541.8
451.254	1563.26
451.628	1587.22
452.002	1579.53
452.376	1609.14
452.75	1625.64
453.123	1625.18
453.497	1664.05
453.871	1686.65
454.244	1718.97
454.618	1721.45
454.992	1744.95
455.365	1723.26
455.739	1799.19
456.112	1788.57
456.486	1804.16
456.859	1801.68
457.232	1860.88
457.606	1880.77
457.979	1908.34
458.352	1982.46
458.725	1923.03
459.099	1951.95
459.472	1972.52
459.845	2033.31
460.218	2040.77
460.591	2014.55
460.964	2071.73
461.337	2118.73
461.71	2135.23
462.083	2157.6
462.456	2164.6
462.829	2157.6
463.201	2199.63
463.574	2203.47
463.947	2231.27
464.32	2318.72
464.692	2323.47
465.065	2325.5
465.438	2335.22
465.81	2377.03
466.183	2410.7
466.555	2422
466.928	2465.61
467.3	2491.83
467.672	2500.19
468.045	2544.03
468.417	2583.58
468.789	2605.04
469.161	2612.73
469.534	2660.41
469.906	2683.69
470.278	2725.27
470.65	2710.13
471.022	2814.53
471.394	2857.24
471.766	2870.35
472.138	2934.08
472.51	2950.12
472.882	2989.44
473.253	3043.68
473.625	3072.6
473.997	3145.82
474.369	3181.98
474.74	3224.69
475.112	3249.55
475.484	3311.69
475.855	3356.66
476.227	3382.65
476.598	3474.17
476.97	3509.88
477.341	3572.25
477.713	3702.42
478.084	3703.77
478.455	3803.21
478.827	3803.66
479.198	3938.57
479.569	3948.74
479.94	4068.28
480.311	4107.15
480.682	4214.27
481.053	4273.48
481.424	4378.33
481.795	4433.25
482.166	4538.1
482.537	4585.56
482.908	4682.5
483.279	4750.75
483.65	4844.53
484.021	4986.9
484.391	5034.13
484.762	5091.53
485.133	5177.63
485.503	5303.96
485.874	5427.57
486.244	5477.29
486.615	5605.19
486.985	5668.47
487.356	5792.98
487.726	5892.64
488.097	6031.17
488.467	6069.36
488.837	6282.91
489.207	6356.36
489.578	6515
489.948	6604.71
490.318	6756.12
490.688	6766.97
491.058	6967.64
491.428	7114.98
491.798	7199.73
492.168	7378.03
492.538	7487.18
492.908	7619.38
493.278	7813.5
493.648	7924.23
494.017	8087.61
494.387	8232.02
494.757	8342.07
495.126	8480.6
495.496	8619.12
495.866	8725.11
496.235	8933.69
496.605	9114.48
496.974	9259.56
497.344	9397.41
497.713	9525.99
498.082	9677.4
498.452	9840.33
498.821	10010.73
499.19	10161.46
499.559	10361.68
499.928	10577.49
500.298	10681.22
500.667	10936.35
501.036	11030.36
501.405	11259.51
501.774	11333.85
502.143	11589.22
502.512	11704.92
502.88	11936.55
503.249	12113.27
503.618	12379.02
503.987	12431.9
504.356	12647.94
504.724	12920.25
505.093	13025.79
505.462	13160.7
505.83	13390.07
506.199	13638.65
506.567	13884.75
506.936	14021.47
507.304	14318.63
507.672	14543.04
508.041	14650.38
508.409	14931.05
508.777	15208.78
509.145	15239.29
509.514	15522.9
509.882	15686.51
510.25	15764.25
510.618	16037.23
510.986	16133.95
511.354	16373.5
511.722	16623.88
512.09	16864.1
512.458	16882.18
512.826	17242.63
513.193	17425.9
513.561	17622.73
513.929	17770.97
514.297	17949.27
514.664	18139.1
515.032	18251.19
515.4	18542.93
515.767	18637.39
516.135	18812.75
516.502	18796.26
516.869	19260.43
517.237	19431.72
517.604	19412.51
517.972	19819.06
518.339	19954.87
518.706	20128.65
519.073	20151.7
519.44	20372.71
519.808	20574.29
520.175	20727.28
520.542	21016.99
520.909	21161.39
521.276	21306.93
521.643	21480.25
522.009	21623.3
522.376	21915.27
522.743	22025.32
523.11	22354.36
523.477	22632.77
523.843	22810.84
524.21	22974
524.577	23101.45
524.943	23313.43
525.31	23393.42
525.676	23682.68
526.043	23933.3
526.409	24170.35
526.776	24385.94
527.142	24427.75
527.508	24647.18
527.874	24870.67
528.241	25017.34
528.607	25065.24
528.973	25464.1
529.339	25341.85
529.705	25725.79
530.071	25827.48
530.437	26040.81
530.803	26165.55
531.169	26309.05
531.535	26375.94
531.901	26520.35
532.267	26685.77
532.632	26790.17
532.998	26937.51
533.364	27184.74
533.73	27181.12
534.095	27460.21
534.461	27494.33
534.826	27685.06
535.192	27797.15
535.557	28015.9
535.923	27902.68
536.288	28062.68
536.653	28113.98
537.019	28173.19
537.384	28228.78
537.749	28369.56
538.114	28460.64
538.479	28391.71
538.845	28510.8
539.21	28507.41
539.575	28586.51
539.94	28754.41
540.305	28886.61
540.67	29051.13
541.034	29109.66
541.399	29199.6
541.764	29144.46
542.129	29195.76
542.494	29389.88
542.858	29375.87
543.223	29266.72
543.587	29489.76
543.952	29521.17
544.316	29640.94
544.681	29591.45
545.045	29784.22
545.41	29955.96
545.774	29839.81
546.138	29852.24
546.503	29975.4
546.867	30035.96
547.231	30228.5
547.595	30286.58
547.959	30260.36
548.324	30275.73
548.688	30318.21
549.052	30414.03
549.416	30486.57
549.779	30406.57
550.143	30472.11
550.507	30691.09
550.871	30908.93
551.235	30728.15
551.599	30961.81
551.962	31005.43
552.326	30980.8
552.689	31119.55
553.053	30954.13
553.417	31106.44
553.78	31580.78
554.143	31514.34
554.507	31371.75
554.87	31663.72
555.234	31936.02
555.597	31758.85
555.96	31856.93
556.323	32002.92
556.686	31853.54
557.05	32223.7
557.413	32125.85
557.776	32185.51
558.139	32413.3
558.502	32443.13
558.865	32444.03
559.228	32727.87
559.59	32880.41
559.953	32770.35
560.316	33179.16
560.679	33072.49
561.041	33281.07
561.404	33494.63
561.767	33697.79
562.129	33591.12
562.492	33918.57
562.854	33980.72
563.217	34028.4
563.579	34098.23
563.941	34246.02
564.304	34284.66
564.666	34677.65
565.028	34680.81
565.39	34780.92
565.753	34969.62
566.115	34967.81
566.477	35109.5
566.839	35236.95
567.201	35628.81
567.563	35510.17
567.925	35825.87
568.287	35845.53
568.648	35792.87
569.01	36054.56
569.372	36444.61
569.734	36210.71
570.095	36468.11
570.457	36727.54
570.819	36582
571.18	36820.87
571.542	37019.28
571.903	36907.87
572.265	37016.8
572.626	37153.74
572.987	37195.32
573.349	37408.2
573.71	37448.42
574.071	37653.16
574.432	37860.16
574.794	37978.35
575.155	37916.88
575.516	37964.34
575.877	38152.13
576.238	38169.08
576.599	38168.18
576.96	38299.93
577.32	38325.46
577.681	38239.59
578.042	38553.48
578.403	38415.18
578.763	38334.95
579.124	38613.82
579.485	38696.07
579.845	38761.83
580.206	38710.08
580.566	38741.27
580.927	38707.6
581.287	38910.98
581.648	38789.86
582.008	39020.36
582.368	38968.83
582.728	38872.79
583.089	38907.59
583.449	38818.56
583.809	38925.22
584.169	39020.36
584.529	38735.62
584.889	39027.14
585.249	38743.3
585.609	38804.32
585.969	39093.12
586.329	38675.73
586.688	38940.36
587.048	38924.32
587.408	38810.87
587.768	38818.1
588.127	38959.79
588.487	38787.14
588.846	39010.41
589.206	38677.09
589.565	38654.49
589.925	38915.05
590.284	38840.93
590.643	38786.01
591.003	38809.06
591.362	38899.01
591.721	38824.21
592.08	38755.28
592.44	38884.09
592.799	38843.41
593.158	38804.77
593.517	38778.56
593.876	38881.15
594.235	38660.37
594.593	38732.46
594.952	38757.09
595.311	38644.77
595.67	38748.05
596.029	38838.89
596.387	38918.44
596.746	39006.57
597.104	38674.83
597.463	38666.24
597.822	38859.91
598.18	38729.97
598.538	38755.51
598.897	38999.79
599.255	38725.45
599.613	39109.62
599.972	38848.61
600.33	38948.95
600.688	38893.58
601.046	38811.78
601.404	39223.06
601.762	39145.33
602.12	39330.18
602.478	39195.27
602.836	39318.43
603.194	39078.44
603.552	39237.53
603.91	39146
604.268	39249.73
604.625	39298.32
604.983	39401.37
605.341	39178.09
605.698	39467.13
606.056	39694.69
606.413	39292.67
606.771	39614.92
607.128	39523.85
607.485	39576.5
607.843	39419.22
608.2	39658.31
608.557	39827.57
608.914	39787.12
609.272	39977.4
609.629	40078.86
609.986	40105.08
610.343	40005.87
610.7	40253.77
611.057	40103.72
611.414	40051.52
611.771	40114.79
612.127	40356.37
612.484	40454.67
612.841	40578.28
613.198	40393.2
613.554	40403.15
613.911	40575.57
614.267	40625.97
614.624	40517.27
614.98	40653.76
615.337	41105.73
615.693	40958.39
616.05	40962.23
616.406	41076.58
616.762	41009.46
617.118	40929.46
617.475	40897.82
617.831	41291.26
618.187	41265.72
618.543	41334.42
618.899	41540.52
619.255	41423.01
619.611	41311.15
619.967	41513.85
620.323	41677.46
620.678	41394.31
621.034	41245.16
621.39	41422.1
621.746	41359.28
622.101	41894.86
622.457	41533.96
622.812	41695.09
623.168	41734.19
623.523	41747.07
623.879	41767.63
624.234	41637.46
624.589	41727.63
624.945	41633.4
625.3	41788.87
625.655	41842.66
626.01	41803.56
626.365	41832.94
626.72	41703.9
627.075	41749.33
627.43	41606.73
627.785	41794.97
628.14	41680.63
628.495	41753.85
628.85	41830.91
629.205	41662.55
629.559	41879.27
629.914	41597.69
630.269	41648.76
630.623	41410.8
630.978	41416
631.332	41687.63
631.687	41575.09
632.041	41446.51
632.396	41441.54
632.75	41327.19
633.104	41392.27
633.459	41180.98
633.813	41206.29
634.167	41193.18
634.521	41320.86
634.875	41205.16
635.229	41194.54
635.583	40942.34
635.937	41123.35
636.291	40881.78
636.645	40941.44
636.999	40792.51
637.352	40913.87
637.706	40679.98
638.06	40889.91
638.413	40682.01
638.767	40594.1
639.121	40549.81
639.474	40394.11
639.828	40491.28
640.181	40439.3
640.534	40578.96
640.888	40327.89
641.241	40093.55
641.594	40249.93
641.947	40305.52
642.301	40095.36
642.654	40173.1
643.007	39980.78
643.36	40122.93
643.713	39949.6
644.066	40272.75
644.419	39947.34
644.771	39509.38
645.124	39139.23
645.477	39110.07
645.83	39053.58
646.182	38922.73
646.535	38901.94
646.888	38965.44
647.24	38962.05
647.593	39222.16
647.945	38986.23
648.298	38862.17
648.65	38548.73
649.002	38455.4
649.355	38298.57
649.707	38177.22
650.059	38091.12
650.411	38771.78
650.763	39052.67
651.115	39471.42
651.467	39303.97
651.819	39569.95
652.171	39274.14
652.523	39049.28
652.875	39183.97
653.227	39042.28
653.578	39339.67
653.93	39178.55
654.282	38997.08
654.633	39017.19
654.985	39206.57
655.337	39087.48
655.688	39000.02
656.039	39278.43
656.391	38819.23
656.742	38864.66
657.094	38985.1
657.445	39050.19
657.796	38964.31
658.147	39021.26
658.498	38951.66
658.849	39190.75
659.2	38908.04
659.551	38959.12
659.902	39182.39
660.253	38960.92
660.604	39111.2
660.955	38940.81
661.306	39107.81
661.656	39051.54
662.007	39028.49
662.358	39096.51
662.708	39033.47
663.059	38946.69
663.409	38911.89
663.76	39083.18
664.11	39195.49
664.461	39319.33
664.811	39268.49
665.161	39053.35
665.511	39102.84
665.862	39200.24
666.212	39278.43
666.562	39368.37
666.912	39179.68
667.262	39128.15
667.612	39202.73
667.962	39179.45
668.312	39032.79
668.662	39175.16
669.011	39072.79
669.361	39096.29
669.711	39122.5
670.06	39013.58
670.41	39071.43
670.76	39004.54
671.109	39128.15
671.459	39125.67
671.808	38954.15
672.157	39106.46
672.507	39035.73
672.856	38905.33
673.205	38930.87
673.554	38968.83
673.904	38948.5
674.253	39225.78
674.602	38898.1
674.951	38481.39
675.3	38295.63
675.649	38978.55
675.998	38858.55
676.346	38915.5
676.695	38898.78
677.044	38547.83
677.393	38706.02
677.741	38752.79
678.09	38662.4
678.438	38500.15
678.787	38759.35
679.135	38677.32
679.484	38244.56
679.832	38445.46
680.181	38481.16
680.529	38385.8
680.877	38139.7
681.225	38233.03
681.573	38560.03
681.922	38262.64
682.27	38068.74
682.618	38108.52
682.966	37945.58
683.314	38070.33
683.661	37922.31
684.009	37810.67
684.357	37759.15
684.705	37621.75
685.053	37763.22
685.4	37578.59
685.748	37560.28
686.095	37496.56
686.443	37204.59
686.79	37187.19
687.138	37284.58
687.485	37309.89
687.832	36928.66
688.18	37124.59
688.527	36910.81
688.874	36737.03
689.221	36806.86
689.568	36722.11
689.915	36558.73
690.262	36414.78
690.609	36348.56
690.956	36231.05
691.303	36193.31
691.65	36049.81
691.997	35883.04
692.344	35749.03
692.69	35656.83
693.037	35662.93
693.383	35382.49
693.73	35627.91
694.077	35135.04
694.423	35298.2
694.769	35123.06
695.116	35143.4
695.462	34833.8
695.808	34879.9
696.155	34705.9
696.501	34369.63
696.847	34588.38
697.193	34293.93
697.539	34433.13
697.885	34068.85
698.231	34187.26
698.577	33902.3
698.923	33846.71
699.269	33497.79
699.614	33587.73
699.96	33345.48
700.306	33439.71
700.651	33268.19
700.997	33084.7
701.342	32990.69
701.688	32896.23
702.033	32739.17
702.379	32843.35
702.724	32663.24
703.069	32646.97
703.415	32322.23
703.76	32204.27
704.105	32329.46
704.45	32131.5
704.795	32018.28
705.14	31963.59
705.485	31958.62
705.83	31604.51
706.175	31837.5
706.52	31579.42
706.865	31492.65
707.209	31445.87
707.554	31237.96
707.899	31370.62
708.243	31085.2
708.588	31114.58
708.932	30823.29
709.277	30895.37
709.621	30803.85
709.966	30686.57
710.31	30676.85
710.654	30419.91
710.998	30542.84
711.342	30509.17
711.687	30405.67
712.031	30219.23
712.375	30271.89
712.719	30221.72
713.063	30115.06
713.407	30179.69
713.75	30058.33
714.094	30060.14
714.438	29842.07
714.782	29981.73
715.125	29805.91
715.469	29862.18
715.812	29688.63
716.156	29610.89
716.499	29528.18
716.843	29647.95
717.186	29437.56
717.53	29499.03
717.873	29532.02
718.216	29470.1
718.559	29374.51
718.902	29132.26
719.246	29156.44
719.589	29064.91
719.932	28986.72
720.275	29196.89
720.617	29098.13
720.96	28901.75
721.303	28908.31
721.646	29123.9
721.989	28912.6
722.331	28869.89
722.674	28815.2
723.016	28796.67
723.359	28739.72
723.701	28791.25
724.044	28686.62
724.386	28572.27
724.729	28668.31
725.071	28784.02
725.413	28535.44
725.755	28580.41
726.097	28595.1
726.439	28418.38
726.782	28370.69
727.124	28628.77
727.465	28383.8
727.807	28454.53
728.149	28447.75
728.491	28358.94
728.833	28374.99
729.175	28281.21
729.516	28312.84
729.858	28339.96
730.199	28415.89
730.541	28337.93
730.882	28371.6
731.224	28353.52
731.565	28224.94
731.906	28281.43
732.248	28252.73
732.589	28130.93
732.93	28050.93
733.271	28203.69
733.612	28175.45
733.953	28242.79
734.294	28219.74
734.635	28087.09
734.976	28313.97
735.317	28113.75
735.658	28083.47
735.999	28124.83
736.339	28079.63
736.68	28253.41
737.021	28091.38
737.361	28160.3
737.702	28342.22
738.042	28186.07
738.383	28266.29
738.723	28361.2
739.063	28056.13
739.404	28251.15
739.744	28320.53
740.084	28281.21
740.424	28338.15
740.764	28364.14
741.104	28440.07
741.444	28335.22
741.784	28243.92
742.124	28380.86
742.464	28381.32
742.804	28416.57
743.143	28494.08
743.483	28477.58
743.823	28447.3
744.162	28547.41
744.502	28619.28
744.841	28527.3
745.181	28767.29
745.52	28647.52
745.86	28618.6
746.199	28716.45
746.538	28718.93
746.877	28810.68
747.216	28739.5
747.556	28980.85
747.895	29105.36
748.234	29021.75
748.573	29028.53
748.911	29026.27
749.25	29162.09
749.589	28982.66
749.928	29325.25
750.267	29332.93
750.605	29248.64
750.944	29356.43
751.283	29442.76
751.621	29544
751.96	29428.52
752.298	29388.52
752.636	29599.36
752.975	29709.64
753.313	29597.33
753.651	29816.31
753.989	29763.2
754.327	29831.9
754.666	29642.07
755.004	29803.2
755.342	29910.99
755.679	29982.63
756.017	29980.37
756.355	30215.17
756.693	30140.82
757.031	30246.13
757.368	30139.01
757.706	30306.01
758.044	30222.62
758.381	30310.08
758.719	30305.56
759.056	30351.43
759.394	30432.34
759.731	30254.04
760.068	30278.67
760.405	30397.76
760.743	30252.23
761.08	30458.78
761.417	30440.92
761.754	30373.35
762.091	30353.69
762.428	30224.43
762.765	30350.76
763.102	30270.53
763.438	30274.83
763.775	30249.06
764.112	30353.47
764.449	30206.13
764.785	30350.98
765.122	30120.93
765.458	30197.99
765.795	30133.59
766.131	30202.06
766.467	30119.8
766.804	29977.21
767.14	29863.08
767.476	29873.48
767.812	29865.57
768.148	29942.63
768.485	29904.44
768.821	29691.11
769.157	29624.9
769.492	29609.76
769.828	29735.63
770.164	29419.71
770.5	29255.19
770.836	29378.35
771.171	29307.17
771.507	29185.36
771.842	29098.81
772.178	28995.54
772.513	29007.74
772.849	28890.46
773.184	29010.23
773.519	28817.01
773.855	28761.64
774.19	28692.95
774.525	28584.47
774.86	28621.99
775.195	28553.29
775.53	28450.69
775.865	28374.54
776.2	28149.68
776.535	27974.32
776.87	28005.96
777.205	27941.1
777.539	27829.24
777.874	28018.84
778.209	27618.4
778.543	27681
778.878	27481
779.212	27431.28
779.547	27294.34
779.881	27336.6
780.215	27207.79
780.55	27222.93
780.884	26995.82
781.218	26978.19
781.552	27140.44
781.886	26798.08
782.22	26756.73
782.554	26678.08
782.888	26354.48
783.222	26340.69
783.556	26252.78
783.889	26169.17
784.223	25978.22
784.557	26032
784.89	26130.3
785.224	25883.75
785.557	25803.53
785.891	25638.11
786.224	25700.93
786.558	25613.71
786.891	25387.04
787.224	25354.05
787.557	25297.56
787.891	25266.6
788.224	25046.49
788.557	25087.17
788.89	25026.83
789.223	24848.75
789.556	24826.38
789.888	24774.41
790.221	24540.51
790.554	24523.79
790.887	24499.61
791.219	24425.94
791.552	24286.73
791.884	24160.41
792.217	24135.33
792.549	24057.59
792.882	23923.13
793.214	23873.64
793.546	23869.8
793.879	23759.29
794.211	23613.08
794.543	23612.18
794.875	23536.25
795.207	23557.49
795.539	23381.22
795.871	23431.39
796.203	23233.43
796.535	23165.63
796.867	23142.36
797.198	23038.63
797.53	23004.96
797.862	22856.04
798.193	22897.39
798.525	22703.73
798.856	22821.24
799.188	22530.62
799.519	22491.53
799.85	22430.06
800.182	22432.77
800.513	22382.6
800.844	22191.65
801.175	22265.32
801.506	22310.06
801.837	22185.55
802.168	22094.48
802.499	22056.28
802.83	21864.2
803.161	21745.78
803.491	21805.44
803.822	21853.8
804.153	21615.84
804.483	21533.81
804.814	21390.31
805.145	21575.17
805.475	21427.37
805.805	21360.94
806.136	21349.86
806.466	21328.39
806.796	21308.96
807.126	21153.03
807.457	21102.86
807.787	21098.57
808.117	21006.14
808.447	20918.01
808.777	20974.05
809.107	20752.14
809.436	20681.41
809.766	20787.84
810.096	20676.43
810.426	20482.77
810.755	20560.73
811.085	20619.03
811.414	20551.92
811.744	20357.35
812.073	20369.78
812.403	20313.96
812.732	20250.46
813.061	20376.33
813.39	20181.76
813.719	20172.04
814.049	20202.77
814.378	20131.59
814.707	20052.72
815.036	20033.96
815.365	19943.8
815.693	19832.61
816.022	19742.9
816.351	19723.69
816.68	19650.25
817.008	19768.44
817.337	19599.17
817.665	19573.86
817.994	19553.07
818.322	19583.13
818.651	19504.49
818.979	19385.62
819.307	19427.88
819.636	19400.31
819.964	19310.82
820.292	19360.99
820.62	19432.85
820.948	19388.56
821.276	19380.65
821.604	19407.77
821.932	19416.81
822.259	19309.01
822.587	19386.75
822.915	19247.77
823.243	19353.98
823.57	19163.25
823.898	19364.6
824.225	19309.46
824.553	19307.2
824.88	19325.96
825.207	19406.64
825.535	19294.1
825.862	19379.07
826.189	19264.27
826.516	19403.92
826.843	19418.84
827.17	19352.85
827.497	19297.03
827.824	19351.72
828.151	19395.56
828.478	19295
828.805	19471.72
829.131	19453.19
829.458	19318.05
829.785	19273.31
830.111	19325.51
830.438	19497.48
830.764	19428.78
831.09	19412.06
831.417	19271.95
831.743	19343.36
832.069	19257.49
832.395	19226.53
832.722	19315.57
833.048	19208.68
833.374	19346.3
833.7	19199.41
834.026	19290.71
834.351	19239.64
834.677	19283.25
835.003	19171.16
835.329	19229.92
835.654	19185.63
835.98	19078.96
836.306	19236.7
836.631	19051.17
836.956	19315.57
837.282	19203.7
837.607	19146.98
837.932	18966.2
838.258	19072.63
838.583	19082.8
838.908	18927.33
839.233	19007.78
839.558	18792.87
839.883	18892.3
840.208	18763.72
840.533	18770.04
840.858	18686.88
841.182	18725.52
841.507	18777.73
841.832	18674.45
842.156	18653.21
842.481	18642.81
842.805	18554.46
843.13	18569.37
843.454	18536.38
843.778	18504.51
844.103	18523.95
844.427	18425.19
844.751	18413.44
845.075	18350.62
845.399	18310.39
845.723	18185.65
846.047	18182.94
846.371	18065.65
846.695	18009.61
847.019	17983.4
847.343	17935.71
847.666	17848.26
847.99	17757.87
848.313	17596.51
848.637	17672.22
848.96	17528.72
849.284	17512.68
849.607	17436.97
849.931	17354.71
850.254	17300.03
850.577	17145.45
850.9	17135.96
851.223	17026.13
851.546	16914.27
851.869	16872.01
852.192	17046.47
852.515	16766.03
852.838	16714.96
853.161	16651.68
853.483	16567.39
853.806	16574.62
854.129	16632.92
854.451	16509.09
854.774	16395.42
855.096	16354.74
855.419	16251.92
855.741	16188.19
856.063	16201.52
856.385	16094.18
856.708	16129.89
857.03	16051.02
857.352	15983.45
857.674	16018.48
857.996	15928.54
858.318	15871.14
858.64	15819.84
858.961	15750.01
859.283	15737.35
859.605	15665.49
859.926	15691.48
860.248	15626.85
860.57	15511.6
860.891	15568.55
861.212	15535.55
861.534	15390.7
861.855	15503.46
862.176	15387.76
862.498	15383.92
862.819	15358.83
863.14	15298.04
863.461	15308.44
863.782	15226.18
864.103	15244.26
864.424	15158.84
864.745	15155.45
865.065	15072.97
865.386	15059.63
865.707	15123.81
866.027	15021.89
866.348	15012.4
866.668	15018.5
866.989	14917.26
867.309	14802.92
867.63	14960.2
867.95	14907.55
868.27	14798.62
868.59	14845.4
868.91	14815.8
869.23	14743.03
869.55	14668
869.87	14688.79
870.19	14656.48
870.51	14630.49
870.83	14662.81
871.15	14566.31
871.469	14585.75
871.789	14536.26
872.109	14631.85
872.428	14511.85
872.748	14566.31
873.067	14462.36
873.386	14480.66
873.706	14433.89
874.025	14425.07
874.344	14347.79
874.663	14365.64
874.982	14317.96
875.301	14348.69
875.62	14227.79
875.939	14243.16
876.258	14293.32
876.577	14220.78
876.896	14195.7
877.214	14158.86
877.533	14213.33
877.852	14167.9
878.17	14150.73
878.489	14081.35
878.807	14120.67
879.125	14045.65
879.444	14067.12
879.762	14013.33
880.08	14101.69
880.398	13874.8
880.716	13916.39
881.034	13931.07
881.352	13882.94
881.67	13882.94
881.988	13847.69
882.306	13837.74
882.624	13812.89
882.941	13724.07
883.259	13644.53
883.577	13833.45
883.894	13654.25
884.212	13630.97
884.529	13629.61
884.846	13536.51
885.164	13472.56
885.481	13376.29
885.798	13484.53
886.115	13372.9
886.432	13534.7
886.75	13410.86
887.067	13407.92
887.383	13395.95
887.7	13292
888.017	13221.49
888.334	13160.25
888.651	13134.03
888.967	13109.4
889.284	13026.01
889.6	13036.41
889.917	12972.46
890.233	12967.03
890.55	12971.1
890.866	12943.08
891.182	12861.05
891.498	12835.28
891.815	12860.37
892.131	12731.11
892.447	12725.23
892.763	12673.48
893.079	12694.5
893.395	12651.11
893.71	12564.1
894.026	12566.14
894.342	12536.99
894.657	12422.19
894.973	12367.73
895.289	12317.56
895.604	12360.04
895.92	12270.78
896.235	12235.53
896.55	12278.91
896.865	12210.22
897.181	12104.68
897.496	12148.07
897.811	12054.74
898.126	12021.97
898.441	11965.48
898.756	12051.12
899.071	11903.11
899.386	11875.99
899.7	11790.57
900.015	11712.15
900.33	11628.08
900.644	11706.73
900.959	11710.79
901.273	11594.86
901.588	11619.95
901.902	11548.09
902.216	11554.19
902.531	11509.44
902.845	11441.2
903.159	11294.31
903.473	11339.96
903.787	11239.85
904.101	11175.89
904.415	11159.17
904.729	11247.08
905.042	11094.31
905.356	11109.23
905.67	11047.31
905.984	11075.78
906.297	10918.5
906.611	10891.61
906.924	10862.23
907.237	10925.5
907.551	10854.09
907.864	10773.42
908.177	10779.07
908.491	10747.66
908.804	10680.76
909.117	10582.69
909.43	10513.31
909.743	10483.48
910.056	10538.85
910.368	10418.17
910.681	10454.56
910.994	10319.19
911.307	10245.07
911.619	10221.12
911.932	10310.38
912.244	10153.55
912.557	10153.77
912.869	10010.95
913.181	10012.76
913.494	10104.73
913.806	10016.6
914.118	9896.83
914.43	9914.68
914.742	9868.81
915.054	9841.46
915.366	9794.23
915.678	9747
915.99	9711.07
916.302	9551.53
916.613	9592.66
916.925	9610.06
917.236	9594.92
917.548	9424.3
917.859	9455.94
918.171	9450.51
918.482	9368.93
918.794	9313.79
919.105	9262.27
919.416	9154.93
919.727	9187.24
920.038	9209.39
920.349	9119.9
920.66	9057.98
920.971	9127.13
921.282	9079.68
921.593	8993.58
921.903	8974.37
922.214	8933.69
922.525	8864.54
922.835	8807.14
923.146	8750.42
923.456	8803.53
923.767	8696.41
924.077	8648.28
924.387	8704.55
924.697	8642.85
925.008	8596.07
925.318	8526.47
925.628	8491.22
925.938	8482.63
926.248	8413.48
926.558	8365.8
926.867	8354.05
927.177	8296.42
927.487	8284.44
927.796	8217.55
928.106	8280.83
928.416	8209.19
928.725	8165.12
929.034	8130.77
929.344	8084
929.653	8062.98
929.962	8009.42
930.271	7949.99
930.581	7992.47
930.89	7905.7
931.199	7841.07
931.508	7927.16
931.817	7888.3
932.125	7779.6
932.434	7724.23
932.743	7686.49
933.051	7703.22
933.36	7688.53
933.669	7614.4
933.977	7543.22
934.286	7549.1
934.594	7538.7
934.902	7508.64
935.21	7456.22
935.519	7452.83
935.827	7398.14
936.135	7377.8
936.443	7335.77
936.751	7282.66
937.059	7311.59
937.367	7263.91
937.674	7232.04
937.982	7206.96
938.29	7166.05
938.597	7115.89
938.905	7100.29
939.213	7047.87
939.52	6976.68
939.827	7004.93
940.135	6908.21
940.442	6917.93
940.749	6899.17
941.056	6929.68
941.363	6879.06
941.67	6835.67
941.977	6798.15
942.284	6744.14
942.591	6773.75
942.898	6654.88
943.205	6668.67
943.511	6674.32
943.818	6635.45
944.125	6576.01
944.431	6518.16
944.738	6518.84
945.044	6530.14
945.35	6508.67
945.657	6474.32
945.963	6374.21
946.269	6389.8
946.575	6325.17
946.881	6348.67
947.187	6288.56
947.493	6266.42
947.799	6237.72
948.105	6250.15
948.41	6149.13
948.716	6138.96
949.022	6178.06
949.327	6129.47
949.633	6081.11
949.938	6079.76
950.244	6024.16
950.549	6030.49
950.854	5994.33
951.16	5894.68
951.465	5919.76
951.77	5875.24
952.075	5851.51
952.38	5908.69
952.685	5828.01
952.99	5774.23
953.294	5738.52
953.599	5758.18
953.904	5713.21
954.209	5637.73
954.513	5645.64
954.818	5644.06
955.122	5653.78
955.426	5589.6
955.731	5548.92
956.035	5533.1
956.339	5506.21
956.643	5503.27
956.948	5446.55
957.252	5470.96
957.556	5413.56
957.86	5413.33
958.163	5393.67
958.467	5370.4
958.771	5357.29
959.075	5303.96
959.378	5241.59
959.682	5293.34
959.985	5262.83
960.289	5237.07
960.592	5235.03
960.896	5180.8
961.199	5181.7
961.502	5113.45
961.805	5093.34
962.108	5076.84
962.411	5058.09
962.714	5038.43
963.017	5018.31
963.32	5062.38
963.623	4955.49
963.926	4969.73
964.228	4945.55
964.531	4897.64
964.833	4904.65
965.136	4876.4
965.438	4835.95
965.741	4792.78
966.043	4758.21
966.345	4865.55
966.648	4774.48
966.95	4764.99
967.252	4743.29
967.554	4690.19
967.856	4651.32
968.158	4617.19
968.46	4632.34
968.761	4585.56
969.063	4636.86
969.365	4583.52
969.666	4582.17
969.968	4502.62
970.269	4511.21
970.571	4472.34
970.872	4495.39
971.174	4474.83
971.475	4402.06
971.776	4417.43
972.077	4387.82
972.378	4401.38
972.679	4382.85
972.98	4360.25
973.281	4321.38
973.582	4306.24
973.883	4293.81
974.183	4221.95
974.484	4271.22
974.785	4277.32
975.085	4183.31
975.386	4242.74
975.686	4153.7
975.986	4158.45
976.287	4150.54
976.587	4087.94
976.887	4118.23
977.187	4079.36
977.487	4065.35
977.787	4061.5
978.087	4028.51
978.387	3998.23
978.687	4047.94
978.987	3966.59
979.286	3964.33
979.586	3954.16
979.885	3962.3
980.185	3852.24
980.484	3864.67
980.784	3847.5
981.083	3903.32
981.382	3833.71
981.682	3841.4
981.981	3858.34
982.28	3814.28
982.579	3794.62
982.878	3758.01
983.177	3739.7
983.475	3718.24
983.774	3687.73
984.073	3675.3
984.372	3680.95
984.67	3678.69
984.969	3679.59
985.267	3657.22
985.566	3617.9
985.864	3626.03
986.162	3580.61
986.461	3546.26
986.759	3570.44
987.057	3505.81
987.355	3463.78
987.653	3508.98
987.951	3487.06
988.249	3467.17
988.547	3445.02
988.844	3414.97
989.142	3436.89
989.44	3353.5
989.737	3377.45
990.035	3369.32
990.332	3361.41
990.63	3328.87
990.927	3289.55
991.224	3306.04
991.521	3266.04
991.819	3279.15
992.116	3224.46
992.413	3225.37
992.71	3180.17
993.006	3225.82
993.303	3220.17
993.6	3217.23
993.897	3175.2
994.193	3134.75
994.49	3126.84
994.787	3120.96
995.083	3063.11
995.379	3082.55
995.676	3063.34
995.972	3009.33
996.268	3016.79
996.565	3023.34
996.861	2998.48
997.157	3006.62
997.453	2959.16
997.749	2944.7
998.044	2954.41
998.34	2929.56
998.636	2962.32
998.932	2897.47
999.227	2873.96
999.523	2854.98
999.818	2836.68
1000.114	2859.05
1000.409	2801.2
1000.704	2793.51
1001	2807.53
1001.295	2771.37
1001.59	2736.34
1001.885	2755.1
1002.18	2730.01
1002.475	2701.31
1002.77	2701.54
1003.065	2684.82
1003.359	2696.34
1003.654	2631.03
1003.949	2628.09
1004.243	2627.19
1004.538	2618.83
1004.832	2580.86
1005.127	2576.12
1005.421	2542.67
1005.715	2557.14
1006.009	2562.33
1006.304	2519.4
1006.598	2506.06
1006.892	2492.05
1007.186	2457.03
1007.48	2506.52
1007.773	2454.54
1008.067	2481.88
1008.361	2420.19
1008.655	2410.47
1008.948	2377.93
1009.242	2385.62
1009.535	2346.97
1009.829	2373.19
1010.122	2383.58
1010.415	2318.27
1010.708	2305.84
1011.001	2300.87
1011.295	2275.34
1011.588	2289.57
1011.881	2257.26
1012.173	2231.49
1012.466	2253.64
1012.759	2246.86
1013.052	2211.38
1013.344	2208.9
1013.637	2222.23
1013.93	2162.57
1014.222	2166.64
1014.514	2161.67
1014.807	2117.83
1015.099	2118.5
1015.391	2107.88
1015.683	2088.22
1015.976	2079.63
1016.268	2068.34
1016.56	2048.9
1016.851	2022.69
1017.143	2022.91
1017.435	1984.5
1017.727	1979.98
1018.018	2003.48
1018.31	1967.55
1018.602	1974.1
1018.893	1936.36
1019.185	1921.22
1019.476	1940.43
1019.767	1924.38
1020.058	1901.11
1020.35	1868.79
1020.641	1892.97
1020.932	1874.67
1021.223	1834.9
1021.514	1834.22
1021.804	1813.2
1022.095	1808
1022.386	1804.61
1022.677	1805.29
1022.967	1787.89
1023.258	1766.65
1023.548	1727.55
1023.839	1732.98
1024.129	1719.42
1024.419	1732.75
1024.709	1720.32
1025	1676.71
1025.29	1673.77
1025.58	1677.84
1025.87	1666.09
1026.16	1660.21
1026.449	1609.59
1026.739	1652.53
1027.029	1615.92
1027.319	1595.58
1027.608	1601.68
1027.898	1582.25
1028.187	1547.45
1028.477	1582.47
1028.766	1553.09
1029.055	1541.34
1029.344	1568.91
1029.634	1545.19
1029.923	1472.87
1030.212	1488.01
1030.501	1458.63
1030.79	1453.21
1031.078	1450.27
1031.367	1438.3
1031.656	1436.94
1031.945	1428.13
1032.233	1443.27
1032.522	1432.65
1032.81	1424.51
1033.099	1409.14
1033.387	1394.68
1033.675	1376.6
1033.963	1372.76
1034.251	1369.14
1034.54	1350.61
1034.828	1331.63
1035.116	1340.22
1035.403	1343.83
1035.691	1325.98
1035.979	1309.49
1036.267	1287.79
1036.554	1293.44
1036.842	1320.33
1037.129	1262.03
1037.417	1269.71
1037.704	1287.11
1037.992	1239.66
1038.279	1234.69
1038.566	1241.46
1038.853	1241.46
1039.14	1241.46
