Data from 383_FLMS001491_010.txt Node
Date: Thu Apr 19 15:42:50 BST 2018
User: hsy
Spectrometer: FLMS00149
Trigger mode: 0
Integration Time (sec): 1.000000E-2
Scans to average: 10
Electric dark correction enabled: true
Nonlinearity correction enabled: false
Boxcar width: 0
XAxis mode: Wavelengths
Number of Pixels in Spectrum: 2048
>>>>>Begin Spectral Data<<<<<
341.393	-4.21
341.776	-4.21
342.16	-4.21
342.543	-66.35
342.927	-79.46
343.31	-66.58
343.693	-66.58
344.077	-65.9
344.46	-65.68
344.843	-55.96
345.226	-50.76
345.61	-34.72
345.993	-7.15
346.376	-6.69
346.759	16.36
347.142	39.18
347.525	45.51
347.908	63.13
348.291	52.74
348.674	90.7
349.057	112.4
349.44	138.84
349.823	148.78
350.206	172.06
350.588	215.67
350.971	249.34
351.354	257.03
351.737	268.33
352.119	264.71
352.502	284.82
352.884	298.83
353.267	298.61
353.65	308.55
354.032	308.1
354.414	327.31
354.797	350.58
355.179	360.3
355.562	358.27
355.944	346.06
356.326	363.69
356.709	362.11
357.091	389.68
357.473	391.94
357.855	386.29
358.238	359.62
358.62	375.67
359.002	388.78
359.384	374.09
359.766	368.44
360.148	363.69
360.53	362.56
360.912	380.41
361.294	374.99
361.676	384.26
362.057	374.54
362.439	365.05
362.821	358.27
363.203	371.6
363.584	342.45
363.966	354.2
364.348	373.41
364.729	349.23
365.111	369.11
365.493	353.3
365.874	365.05
366.256	373.63
366.637	362.34
367.019	367.98
367.4	356.91
367.781	350.81
368.163	368.44
368.544	358.27
368.925	337.48
369.306	370.47
369.688	370.24
370.069	349.45
370.45	375.67
370.831	386.52
371.212	380.41
371.593	374.09
371.974	339.06
372.355	366.18
372.736	377.48
373.117	375.67
373.498	366.63
373.879	354.65
374.26	377.02
374.641	361.21
375.021	362.11
375.402	393.07
375.783	372.5
376.163	391.26
376.544	380.64
376.925	386.06
377.305	380.41
377.686	387.19
378.066	379.96
378.447	403.01
378.827	402.11
379.208	406.4
379.588	384.93
379.968	396.23
380.349	414.54
380.729	388.55
381.109	425.16
381.489	422.67
381.87	400.07
382.25	401.66
382.63	419.51
383.01	423.58
383.39	439.62
383.77	428.77
384.15	396.46
384.53	436.46
384.91	428.77
385.29	441.2
385.67	427.64
386.049	406.63
386.429	427.42
386.809	446.63
387.189	432.62
387.568	458.6
387.948	438.04
388.328	457.93
388.707	452.95
389.087	455.21
389.466	485.04
389.846	458.38
390.225	460.86
390.605	457.02
390.984	456.57
391.363	475.55
391.743	478.72
392.122	485.72
392.501	482.78
392.881	465.61
393.26	478.26
393.639	478.72
394.018	511.48
394.397	487.3
394.776	507.87
395.155	491.82
395.534	527.3
395.913	502.22
396.292	490.47
396.671	515.33
397.05	497.92
397.429	518.49
397.808	516.68
398.186	517.59
398.565	526.85
398.944	517.59
399.323	538.83
399.701	537.7
400.08	522.56
400.458	549
400.837	537.92
401.215	548.32
401.594	545.38
401.972	524.82
402.351	575.21
402.729	571.82
403.107	546.74
403.486	580.63
403.864	552.61
404.242	586.06
404.62	557.36
404.999	591.03
405.377	595.1
405.755	612.05
406.133	598.49
406.511	635.32
406.889	603.23
407.267	606.62
407.645	615.66
408.023	621.99
408.401	629.22
408.779	638.03
409.156	629.45
409.534	663.12
409.912	648.66
410.29	657.24
410.667	651.14
411.045	647.53
411.422	680.52
411.8	701.08
412.178	692.27
412.555	680.29
412.933	701.76
413.31	707.86
413.687	721.42
414.065	727.3
414.442	749.67
414.819	749.44
415.197	749.67
415.574	762.55
415.951	743.34
416.328	757.8
416.705	767.52
417.082	732.04
417.46	773.62
417.837	791.48
418.214	782.66
418.591	798.03
418.967	763.23
419.344	787.18
419.721	812.04
420.098	812.49
420.475	833.51
420.852	830.57
421.228	837.35
421.605	843.23
421.982	845.26
422.358	821.53
422.735	838.71
423.111	832.61
423.488	888.87
423.864	853.17
424.241	864.92
424.617	871.02
424.994	872.83
425.37	896.33
425.746	903.56
426.123	927.97
426.499	913.51
426.875	970.91
427.251	938.14
427.627	940.17
428.003	945.14
428.379	990.34
428.756	978.82
429.132	979.49
429.507	1009.32
429.883	992.83
430.259	1025.37
430.635	1028.31
431.011	1029.66
431.387	1032.83
431.763	1059.04
432.138	1070.34
432.514	1062.43
432.89	1083.22
433.265	1094.97
433.641	1094.07
434.016	1096.55
434.392	1143.11
434.767	1147.63
435.143	1144.46
435.518	1165.03
435.894	1177
436.269	1186.49
436.644	1205.7
437.02	1221.52
437.395	1201.86
437.77	1235.76
438.145	1259.71
438.52	1252.26
438.895	1266.94
439.271	1252.26
439.646	1296.1
440.021	1321.18
440.395	1287.73
440.77	1293.38
441.145	1315.98
441.52	1366.6
441.895	1321.18
442.27	1349.43
442.645	1340.39
443.019	1320.95
443.394	1361.86
443.769	1342.2
444.143	1376.77
444.518	1393.49
444.892	1377.68
445.267	1395.53
445.641	1389.43
446.016	1435.75
446.39	1420.84
446.764	1413.61
447.139	1420.61
447.513	1445.7
447.887	1439.59
448.262	1438.69
448.636	1447.96
449.01	1484.79
449.384	1482.31
449.758	1505.81
450.132	1512.14
450.506	1511.46
450.88	1549.42
451.254	1531.12
451.628	1571.34
452.002	1577.44
452.376	1605.69
452.75	1630.32
453.123	1608.86
453.497	1654.96
453.871	1639.82
454.244	1660.83
454.618	1692.7
454.992	1748.06
455.365	1731.79
455.739	1751.45
456.112	1782.86
456.486	1805.24
456.859	1767.27
457.232	1799.36
457.606	1852.01
457.979	1867.15
458.352	1889.07
458.725	1940.15
459.099	1948.28
459.472	1937.66
459.845	1962.29
460.218	1993.25
460.591	2038
460.964	2040.94
461.337	2052.69
461.71	2122.06
462.083	2149.18
462.456	2128.84
462.829	2144.89
463.201	2181.95
463.574	2161.38
463.947	2217.88
464.32	2264.88
464.692	2299.91
465.065	2302.85
465.438	2318.89
465.81	2335.62
466.183	2352.57
466.555	2454.48
466.928	2428.04
467.3	2442.73
467.672	2482.51
468.045	2554.14
468.417	2515.5
468.789	2567.7
469.161	2593.46
469.534	2620.81
469.906	2656.74
470.278	2719.34
470.65	2720.24
471.022	2779.9
471.394	2806.56
471.766	2813.12
472.138	2910.06
472.51	2948.93
472.882	2948.93
473.253	2999.33
473.625	3048.82
473.997	3063.51
474.369	3147.57
474.74	3189.15
475.112	3254.01
475.484	3270.73
475.855	3298.98
476.227	3356.38
476.598	3475.7
476.97	3486.32
477.341	3563.38
477.713	3593.21
478.084	3653.77
478.455	3755.69
478.827	3737.84
479.198	3861
479.569	3884.28
479.94	3968.57
480.311	4117.04
480.682	4100.32
481.053	4254.66
481.424	4269.58
481.795	4346.19
482.166	4439.97
482.537	4520.19
482.908	4589.57
483.279	4661.88
483.65	4745.5
484.021	4841.09
484.391	4923.57
484.762	5061.42
485.133	5093.51
485.503	5172.38
485.874	5298.02
486.244	5373.28
486.615	5501.18
486.985	5563.33
487.356	5684.23
487.726	5764.23
488.097	5938.69
488.467	6006.03
488.837	6168.06
489.207	6274.72
489.578	6352.69
489.948	6479.01
490.318	6614.6
490.688	6669.51
491.058	6904.99
491.428	6974.82
491.798	7094.81
492.168	7265.66
492.538	7374.81
492.908	7519.44
493.278	7634.01
493.648	7641.69
494.017	7888.01
494.387	7999.42
494.757	8185.86
495.126	8289.13
495.496	8430.15
495.866	8551.72
496.235	8674.43
496.605	8845.5
496.974	8979.96
497.344	9188.32
497.713	9336.79
498.082	9493.17
498.452	9623.79
498.821	9763.9
499.19	9985.58
499.559	10111.01
499.928	10254.73
500.298	10436.87
500.667	10633.03
501.036	10659.01
501.405	10882.51
501.774	11039.12
502.143	11223.97
502.512	11347.81
502.88	11722.26
503.249	11772.66
503.618	12041.35
503.987	12061.01
504.356	12395.92
504.724	12537.16
505.093	12701.9
505.462	12893.31
505.83	12997.71
506.199	13256.46
506.567	13546.62
506.936	13616
507.304	13874.75
507.672	14053.05
508.041	14229.77
508.409	14422.08
508.777	14748.62
509.145	14890.31
509.514	14999.92
509.882	15197.2
510.25	15330.3
510.618	15631.54
510.986	15683.97
511.354	15939.55
511.722	16169.38
512.09	16447.79
512.458	16391.97
512.826	16661.79
513.193	16800.55
513.561	17047.09
513.929	17174.32
514.297	17375.9
514.664	17466.97
515.032	17799.84
515.4	17961.19
515.767	18119.61
516.135	18151.47
516.502	18259.49
516.869	18633.27
517.237	18789.42
517.604	18752.81
517.972	19097.21
518.339	19273.93
518.706	19430.31
519.073	19547.59
519.44	19715.27
519.808	19962.95
520.175	20116.17
520.542	20367.46
520.909	20452.65
521.276	20606.32
521.643	20814.23
522.009	20967.22
522.376	21210.83
522.743	21247.89
523.11	21610.82
523.477	21851.71
523.843	21982.33
524.21	22326.28
524.577	22440.17
524.943	22637
525.31	22599.49
525.676	22960.61
526.043	23065.92
526.409	23336.42
526.776	23486.92
527.142	23531.44
527.508	23890.76
527.874	24061.6
528.241	24200.58
528.607	24353.34
528.973	24594.47
529.339	24674.01
529.705	24840.34
530.071	24967.34
530.437	25257.95
530.803	25300.89
531.169	25589.47
531.535	25584.04
531.901	25616.59
532.267	25772.97
532.632	25936.58
532.998	26125.73
533.364	26250.02
533.73	26339.05
534.095	26651.59
534.461	26621.98
534.826	26669.89
535.192	26785.37
535.557	26990.79
535.923	27089.77
536.288	27037.79
536.653	27200.5
537.019	27230.56
537.384	27185.58
537.749	27299.48
538.114	27410.89
538.479	27512.58
538.845	27566.82
539.21	27510.1
539.575	27662.86
539.94	27886.13
540.305	27856.53
540.67	27862.85
541.034	28040.25
541.399	27938.56
541.764	28130.19
542.129	28121.61
542.494	28252.45
542.858	28374.03
543.223	28284.54
543.587	28489.28
543.952	28333.8
544.316	28510.3
544.681	28437.76
545.045	28697.41
545.41	28730.18
545.774	28789.38
546.138	28755.49
546.503	28758.88
546.867	28938.31
547.231	29035.93
547.595	29032.77
547.959	29181.46
548.324	29018.76
548.688	29407.45
549.052	29348.92
549.416	29360.44
549.779	29329.26
550.143	29346.21
550.507	29485.19
550.871	29719.3
551.235	29561.12
551.599	29820.77
551.962	29824.39
552.326	29840.43
552.689	29936.02
553.053	29877.94
553.417	30041.1
553.78	30326.52
554.143	30269.35
554.507	30318.16
554.87	30434.76
555.234	30751.59
555.597	30441.32
555.96	30492.39
556.323	30746.39
556.686	30777.13
557.05	31047.63
557.413	31055.54
557.776	31173.5
558.139	31285.59
558.502	31334.85
558.865	31362.88
559.228	31611.68
559.59	31779.81
559.953	31680.83
560.316	32135.74
560.679	31971.67
561.041	32205.57
561.404	32306.13
561.767	32538.44
562.129	32346.8
562.492	32775.27
562.854	32613.24
563.217	32694.37
563.579	32865.89
563.941	33005.54
564.304	33078.76
564.666	33426.1
565.028	33385.65
565.39	33490.28
565.753	33569.37
566.115	33697.05
566.477	33926.88
566.839	33965.75
567.201	34228.11
567.563	34231.73
567.925	34466.3
568.287	34471.27
568.648	34513.3
569.01	34805.95
569.372	35013.4
569.734	34928.43
570.095	35080.97
570.457	35301.76
570.819	35355.31
571.18	35309.89
571.542	35557.34
571.903	35565.7
572.265	35666.72
572.626	35782.42
572.987	35814.28
573.349	35945.13
573.71	36087.27
574.071	36286.14
574.432	36372.91
574.794	36561.84
575.155	36555.96
575.516	36500.59
575.877	36654.71
576.238	36518.45
576.599	36819.91
576.96	36816.07
577.32	36786.24
577.681	36972.9
578.042	37108.94
578.403	37128.15
578.763	37000.02
579.124	37092.67
579.485	37240.46
579.845	37397.29
580.206	37273
580.566	37325.66
580.927	37361.81
581.287	37402.49
581.648	37287.01
582.008	37543.5
582.368	37488.14
582.728	37406.56
583.089	37463.51
583.449	37374.7
583.809	37277.07
584.169	37440
584.529	37395.94
584.889	37502.38
585.249	37338.54
585.609	37216.06
585.969	37460.79
586.329	37259.9
586.688	37427.8
587.048	37248.37
587.408	37134.25
587.768	37197.75
588.127	37215.83
588.487	37196.62
588.846	37452.89
589.206	37070.97
589.565	37156.4
589.925	37440.46
590.284	37247.24
590.643	37127.47
591.003	37265.09
591.362	37366.79
591.721	37257.64
592.08	37213.12
592.44	37181.93
592.799	37180.35
593.158	37135.15
593.517	37141.26
593.876	37336.05
594.235	37209.05
594.593	37202.95
594.952	37181.93
595.311	37109.62
595.67	37211.76
596.029	37479.33
596.387	37529.04
596.746	37564.97
597.104	37203.4
597.463	37274.13
597.822	37492.66
598.18	37403.4
598.538	37141.26
598.897	37482.49
599.255	37323.62
599.613	37690.39
599.972	37299.89
600.33	37524.07
600.688	37394.36
601.046	37433.9
601.404	37709.38
601.762	37500.34
602.12	37759.32
602.478	37663.5
602.836	37741.01
603.194	37650.62
603.552	37575.37
603.91	37509.15
604.268	37846.32
604.625	37735.36
604.983	37895.81
605.341	37600.9
605.698	38029.82
606.056	38119.53
606.413	37933.1
606.771	38140.32
607.128	38136.26
607.485	37965.64
607.843	38136.94
608.2	38218.06
608.557	38390.04
608.914	38151.17
609.272	38345.74
609.629	38490.6
609.986	38531.5
610.343	38545.74
610.7	38729.24
611.057	38752.74
611.414	38587.54
611.771	38710.93
612.127	38977.59
612.484	38942.34
612.841	38902.79
613.198	38796.35
613.554	38776.24
613.911	39094.2
614.267	39088.32
614.624	39149.56
614.98	39167.42
615.337	39430.91
615.693	39365.15
616.05	39402.89
616.406	39588.65
616.762	39375.55
617.118	39154.99
617.475	39387.3
617.831	39451.02
618.187	39625.48
618.543	39614.86
618.899	39835.2
619.255	39703.67
619.611	39728.08
619.967	39884.91
620.323	39951.58
620.678	39957.23
621.034	39756.33
621.39	39792.71
621.746	39866.83
622.101	40218.24
622.457	39900.5
622.812	40024.34
623.168	40107.96
623.523	40031.57
623.879	40115.19
624.234	40071.35
624.589	40205.13
624.945	40156.99
625.3	40273.6
625.655	40273.38
626.01	40167.16
626.365	40242.87
626.72	40205.13
627.075	40053.27
627.43	40088.3
627.785	40130.55
628.14	39970.33
628.495	40167.16
628.85	40222.53
629.205	40083.32
629.559	40361.96
629.914	40075.87
630.269	40021.86
630.623	39837.46
630.978	39728.76
631.332	39926.27
631.687	39979.6
632.041	39919.94
632.396	39999.03
632.75	39861.86
633.104	39954.06
633.459	39568.76
633.813	39505.71
634.167	39552.49
634.521	39717.01
634.875	39546.62
635.229	39543.9
635.583	39321.08
635.937	39399.5
636.291	39419.39
636.645	39415.32
636.999	39079.28
637.352	39345.49
637.706	38982.34
638.06	39235.21
638.413	38945.28
638.767	39026.4
639.121	39085.84
639.474	38868.89
639.828	38890.36
640.181	38907.54
640.534	39030.24
640.888	38681.78
641.241	38551.84
641.594	38673.87
641.947	38803.36
642.301	38566.75
642.654	38684.04
643.007	38523.37
643.36	38535.57
643.713	38512.29
644.066	38554.33
644.419	38398.4
644.771	38074.79
645.124	37720.45
645.477	37637.97
645.83	37562.49
646.182	37480
646.535	37503.05
646.888	37561.81
647.24	37449.95
647.593	37696.72
647.945	37405.88
648.298	37229.84
648.65	37229.61
649.002	36959.56
649.355	36807.93
649.707	36766.12
650.059	36761.15
650.411	37363.85
650.763	37600.23
651.115	38056.03
651.467	37917.73
651.819	37937.39
652.171	37830.28
652.523	37758.64
652.875	37785.76
653.227	37600.23
653.578	38110.5
653.93	37788.47
654.282	37682.48
654.633	37693.78
654.985	37726.32
655.337	37696.04
655.688	37614.01
656.039	37703.5
656.391	37371.53
656.742	37497.63
657.094	37611.98
657.445	37507.12
657.796	37549.83
658.147	37498.31
658.498	37508.48
658.849	37682.71
659.2	37441.59
659.551	37373.11
659.902	37649.49
660.253	37305.32
660.604	37510.28
660.955	37360.91
661.306	37627.34
661.656	37391.19
662.007	37459.44
662.358	37445.88
662.708	37474.13
663.059	37459.44
663.409	37293.79
663.76	37458.31
664.11	37506.9
664.461	37495.82
664.811	37503.05
665.161	37628.02
665.511	37483.17
665.862	37534.24
666.212	37619.43
666.562	37653.33
666.912	37511.64
667.262	37404.52
667.612	37561.36
667.962	37506.22
668.312	37542.37
668.662	37733.56
669.011	37707.34
669.361	37517.06
669.711	37607.23
670.06	37560.91
670.41	37360.23
670.76	37496.5
671.109	37558.65
671.459	37560.68
671.808	37509.61
672.157	37531.75
672.507	37352.77
672.856	37409.27
673.205	37450.4
673.554	37440.91
673.904	37391.64
674.253	37625.54
674.602	37405.2
674.951	36830.08
675.3	36794.82
675.649	37430.06
675.998	37431.87
676.346	37240.69
676.695	37252.89
677.044	37110.07
677.393	37159.11
677.741	37431.42
678.09	37248.82
678.438	37110.52
678.787	37059
679.135	37075.49
679.484	36908.94
679.832	36995.95
680.181	37047.25
680.529	36913.92
680.877	36838.44
681.225	36645.45
681.573	37008.83
681.922	36705.79
682.27	36607.48
682.618	36824.2
682.966	36621.04
683.314	36637.31
683.661	36578.33
684.009	36323.42
684.357	36178.57
684.705	36024.45
685.053	36042.3
685.4	35908.29
685.748	35885.69
686.095	35885.02
686.443	35664.23
686.79	35652.71
687.138	35703.55
687.485	35753.49
687.832	35365.26
688.18	35512.37
688.527	35198.48
688.874	35309.44
689.221	35184.7
689.568	35015.89
689.915	34991.71
690.262	34996.9
690.609	34848.21
690.956	34785.61
691.303	34693.41
691.65	34564.83
691.997	34396.02
692.344	34399.41
692.69	34323.25
693.037	34278.96
693.383	33955.35
693.73	33958.97
694.077	33765.98
694.423	33772.98
694.769	33660.89
695.116	33633.32
695.462	33402.14
695.808	33242.15
696.155	33334.35
696.501	32932.78
696.847	33207.8
697.193	32909.5
697.539	32912.21
697.885	32697.3
698.231	32598.1
698.577	32554.71
698.923	32516.07
699.269	32337.31
699.614	32195.4
699.96	32089.41
700.306	32043.31
700.651	31971.67
700.997	31808.74
701.342	31664.34
701.688	31621.4
702.033	31581.85
702.379	31458.01
702.724	31256.89
703.069	31347.74
703.415	31032.72
703.76	30903.45
704.105	30891.7
704.45	30856.22
704.795	30717.02
705.14	30584.37
705.485	30508.44
705.83	30221.21
706.175	30349.12
706.52	30312.06
706.865	30042.68
707.209	30024.15
707.554	29995.23
707.899	29939.86
708.243	29690.6
708.588	29663.03
708.932	29650.6
709.277	29630.04
709.621	29386.88
709.966	29277.73
710.31	29289.94
710.654	29141.47
710.998	29209.26
711.342	29117.06
711.687	29074.12
712.031	28916.61
712.375	28814.02
712.719	28854.47
713.063	28795.94
713.407	28872.55
713.75	28655.83
714.094	28729.05
714.438	28554.81
714.782	28543.97
715.125	28324.76
715.469	28637.3
715.812	28237.53
716.156	28205.44
716.499	28265.56
716.843	28362.28
717.186	28156.18
717.53	28305.78
717.873	28347.14
718.216	28136.29
718.559	28081.38
718.902	27819.69
719.246	27966.36
719.589	27763.2
719.932	27760.94
720.275	27854.27
720.617	27795.96
720.96	27761.84
721.303	27773.59
721.646	27775.63
721.989	27640.49
722.331	27833.25
722.674	27658.34
723.016	27590.09
723.359	27513.49
723.701	27561.85
724.044	27511.9
724.386	27467.84
724.729	27501.28
725.071	27333.6
725.413	27436.88
725.755	27320.95
726.097	27486.14
726.439	27336.77
726.782	27198.92
727.124	27461.96
727.465	27407.27
727.807	27384.68
728.149	27440.49
728.491	27240.5
728.833	27191.01
729.175	27143.78
729.516	27174.74
729.858	27145.13
730.199	27211.8
730.541	27157.11
730.882	27078.92
731.224	27129.99
731.565	27036.21
731.906	27172.7
732.248	27218.8
732.589	27012.03
732.93	27026.04
733.271	27032.14
733.612	26974.97
733.953	27101.97
734.294	27022.65
734.635	27028.3
734.976	27059.26
735.317	27005.93
735.658	26935.65
735.999	26952.6
736.339	27005.25
736.68	26958.7
737.021	27054.51
737.361	26939.26
737.702	27184.23
738.042	26943.56
738.383	27006.61
738.723	27099.49
739.063	26894.07
739.404	27271.46
739.744	27071.24
740.084	27002.09
740.424	27035.08
740.764	27134.74
741.104	27319.59
741.444	27190.78
741.784	27127.96
742.124	27258.13
742.464	27370.89
742.804	27146.49
743.143	27156.88
743.483	27350.33
743.823	27243.89
744.162	27303.32
744.502	27479.36
744.841	27404.11
745.181	27475.52
745.52	27401.17
745.86	27478.23
746.199	27562.98
746.538	27480.27
746.877	27621.96
747.216	27739.69
747.556	27632.35
747.895	27782.86
748.234	27807.04
748.573	27723.42
748.911	27760.94
749.25	27904.89
749.589	27796.87
749.928	28096.75
750.267	27977.2
750.605	27996.64
750.944	28020.82
751.283	28251.32
751.621	28422.84
751.96	28267.59
752.298	28319.57
752.636	28383.52
752.975	28395.72
753.313	28329.28
753.651	28683.4
753.989	28560.24
754.327	28703.51
754.666	28551.65
755.004	28784.19
755.342	28817.41
755.679	28896.05
756.017	28706.9
756.355	29055.37
756.693	28825.77
757.031	28960.45
757.368	28968.81
757.706	29040.23
758.044	29055.14
758.381	29023.5
758.719	29026.44
759.056	29172.2
759.394	29206.55
759.731	29075.03
760.068	29000.45
760.405	29150.73
760.743	29131.75
761.08	29227.11
761.417	29144.63
761.754	29088.59
762.091	29293.55
762.428	29013.33
762.765	29041.58
763.102	29141.47
763.438	29135.59
763.775	29080.68
764.112	29102.82
764.449	29234.57
764.785	29155.7
765.122	29035.48
765.458	28889.04
765.795	29055.14
766.131	28936.05
766.467	29040.68
766.804	28780.34
767.14	28867.8
767.476	28778.09
767.812	28654.47
768.148	28743.06
768.485	28738.99
768.821	28519.33
769.157	28472.33
769.492	28557.98
769.828	28525.21
770.164	28355.95
770.5	28446.57
770.836	28361.6
771.171	28382.39
771.507	28186.24
771.842	28073.92
772.178	28008.84
772.513	27950.99
772.849	27921.84
773.184	27784.89
773.519	27863.31
773.855	27647.04
774.19	27649.08
774.525	27529.3
774.86	27446.14
775.195	27471.68
775.53	27200.73
775.865	27200.95
776.2	27075.08
776.535	26881.64
776.87	26883.67
777.205	26808.87
777.539	26665.37
777.874	26734.07
778.209	26595.54
778.543	26549.67
778.878	26436.45
779.212	26492.72
779.547	26274.87
779.881	26339.51
780.215	26112.17
780.55	26222.45
780.884	25987.65
781.218	25883.7
781.552	25784.49
781.886	25677.6
782.22	25520.09
782.554	25447.78
782.888	25312.41
783.222	25266.54
783.556	25200.1
783.889	25109.03
784.223	24978.41
784.557	25038.52
784.89	24937.96
785.224	24857.74
785.557	24617.29
785.891	24643.5
786.224	24576.39
786.558	24544.3
786.891	24339.33
787.224	24190.86
787.557	24110.19
787.891	24111.09
788.224	23844.2
788.557	23983.86
788.89	23922.17
789.223	23894.15
789.556	23728.95
789.888	23676.3
790.221	23597.66
790.554	23565.57
790.887	23600.37
791.219	23442.18
791.552	23321.28
791.884	23290.55
792.217	23155.41
792.549	22949.09
792.882	22837.45
793.214	22875.19
793.546	22914.06
793.879	22772.14
794.211	22616.44
794.543	22695.08
794.875	22561.07
795.207	22529.21
795.539	22513.39
795.871	22523.56
796.203	22379.16
796.535	22251.48
796.867	22243.57
797.198	22129.22
797.53	22075.44
797.862	21843.8
798.193	21966.51
798.525	21811.04
798.856	21923.35
799.188	21619.18
799.519	21497.6
799.85	21536.02
800.182	21457.37
800.513	21475.23
800.844	21208.79
801.175	21421.22
801.506	21320.43
801.837	21129.25
802.168	21151.62
802.499	21187.78
802.83	21000.66
803.161	20899.87
803.491	20851.06
803.822	20956.6
804.153	20838.18
804.483	20647.23
804.814	20604.97
805.145	20635.25
805.475	20525.19
805.805	20600.67
806.136	20489.49
806.466	20418.76
806.796	20322.94
807.126	20341.24
807.457	20208.82
807.787	20280
808.117	20240
808.447	20114.81
808.777	20104.64
809.107	19961.59
809.436	19895.83
809.766	19965.89
810.096	19843.4
810.426	19736.97
810.755	19766.8
811.085	19762.95
811.414	19706.46
811.744	19638.89
812.073	19590.98
812.403	19620.81
812.732	19483.41
813.061	19582.17
813.39	19423.98
813.719	19190.31
814.049	19485.45
814.378	19450.42
814.707	19231.44
815.036	19251.56
815.365	19044.56
815.693	19054.05
816.022	19028.28
816.351	19045.91
816.68	18872.13
817.008	18932.02
817.337	18814.28
817.665	18742.87
817.994	18801.62
818.322	18803.66
818.651	18770.44
818.979	18565.47
819.307	18584.23
819.636	18668.75
819.964	18624.68
820.292	18641.63
820.62	18480.28
820.948	18561.18
821.276	18638.24
821.604	18506.49
821.932	18631.91
822.259	18528.64
822.587	18490.9
822.915	18338.36
823.243	18554.63
823.57	18528.86
823.898	18563.44
824.225	18475.53
824.553	18457.68
824.88	18475.98
825.207	18532.25
825.535	18482.54
825.862	18556.88
826.189	18394.4
826.516	18580.16
826.843	18486.83
827.17	18518.47
827.497	18511.69
827.824	18473.27
828.151	18561.63
828.478	18400.28
828.805	18633.72
829.131	18605.47
829.458	18481.18
829.785	18402.54
830.111	18435.53
830.438	18533.61
830.764	18475.98
831.09	18549.2
831.417	18389.66
831.743	18592.36
832.069	18596.88
832.395	18490.22
832.722	18470.11
833.048	18349.43
833.374	18496.32
833.7	18418.58
834.026	18358.92
834.351	18338.36
834.677	18414.29
835.003	18400.5
835.329	18343.33
835.654	18384.91
835.98	18214.75
836.306	18381.97
836.631	18219.72
836.956	18443.67
837.282	18386.95
837.607	18203.45
837.932	18145.82
838.258	18135.88
838.583	18179.27
838.908	18081.64
839.233	18114.18
839.558	18069.44
839.883	18046.84
840.208	17898.15
840.533	18008.42
840.858	18032.15
841.182	17911.93
841.507	17913.06
841.832	17734.53
842.156	17809.79
842.481	17815.21
842.805	17772.72
843.13	17680.52
843.454	17720.07
843.778	17645.04
844.103	17667.64
844.427	17593.75
844.751	17621.77
845.075	17585.61
845.399	17483.24
845.723	17423.58
846.047	17394.43
846.371	17262
846.695	17236.69
847.019	17115.11
847.343	17050.03
847.666	17039.18
847.99	17014.55
848.313	16937.72
848.637	16905.4
848.96	16827.89
849.284	16736.82
849.607	16619.08
849.931	16625.41
850.254	16504.06
850.577	16439.65
850.9	16294.12
851.223	16253.44
851.546	16285.08
851.869	16177.06
852.192	16290.96
852.515	16003.96
852.838	15988.59
853.161	16008.7
853.483	15893.23
853.806	15911.76
854.129	15821.59
854.451	15734.36
854.774	15664.31
855.096	15591.31
855.419	15660.01
855.741	15584.31
856.063	15549.05
856.385	15453.92
856.708	15432.22
857.03	15428.38
857.352	15398.55
857.674	15315.84
857.996	15196.97
858.318	15114.94
858.64	15084.43
858.961	15036.53
859.283	15024.77
859.605	15008.05
859.926	14976.87
860.248	14904.33
860.57	14924.89
860.891	14934.83
861.212	14893.7
861.534	14726.7
861.855	14721.73
862.176	14682.86
862.498	14695.52
862.819	14723.31
863.14	14599.7
863.461	14623.88
863.782	14619.14
864.103	14559.25
864.424	14549.53
864.745	14573.03
865.065	14469.76
865.386	14446.48
865.707	14472.92
866.027	14413.27
866.348	14392.25
866.668	14300.73
866.989	14305.25
867.309	14137.79
867.63	14254.17
867.95	14210.33
868.27	14079.49
868.59	14226.38
868.91	14087.17
869.23	14112.03
869.55	14043.56
869.87	14116.55
870.19	13968.98
870.51	14046.5
870.83	14033.39
871.15	13955.65
871.469	13855.31
871.789	13960.85
872.109	13908.87
872.428	13788.2
872.748	13851.7
873.067	13820.74
873.386	13846.5
873.706	13838.36
874.025	13807.18
874.344	13698.71
874.663	13707.75
874.982	13761.08
875.301	13703.68
875.62	13636.11
875.939	13570.12
876.258	13614.19
876.577	13466.17
876.896	13521.99
877.214	13543.91
877.533	13582.33
877.852	13599.73
878.17	13451.71
878.489	13553.63
878.807	13474.76
879.125	13465.27
879.444	13405.61
879.762	13416.46
880.08	13354.76
880.398	13302.33
880.716	13289
881.034	13300.98
881.352	13318.15
881.67	13205.16
881.988	13193.41
882.306	13181.66
882.624	13137.14
882.941	13132.17
883.259	13049.23
883.577	13084.49
883.894	13004.71
884.212	12962.68
884.529	12992.74
884.846	12910.03
885.164	12947.99
885.481	12928.78
885.798	12883.59
886.115	12757.26
886.432	12834.78
886.75	12745.51
887.067	12754.33
887.383	12787.32
887.7	12713.87
888.017	12655.57
888.334	12681.33
888.651	12610.6
888.967	12531.28
889.284	12543.94
889.6	12479.53
889.917	12476.82
890.233	12420.1
890.55	12431.17
890.866	12416.93
891.182	12294.68
891.498	12406.99
891.815	12268.46
892.131	12204.74
892.447	12239.08
892.763	12080.45
893.079	12196.83
893.395	12019.66
893.71	12086.77
894.026	11967
894.342	12007.45
894.657	11875.48
894.973	11870.73
895.289	11919.55
895.604	11831.41
895.92	11809.49
896.235	11683.39
896.55	11682.04
896.865	11608.59
897.181	11620.12
897.496	11599.33
897.811	11533.11
898.126	11536.73
898.441	11468.94
898.756	11469.39
899.071	11373.35
899.386	11415.15
899.7	11303.29
900.015	11266.91
900.33	11139
900.644	11179.9
900.959	11191.88
901.273	11082.28
901.588	11049.06
901.902	11039.79
902.216	11017.87
902.531	10987.59
902.845	10904.88
903.159	10797.77
903.473	10828.95
903.787	10767.94
904.101	10667.37
904.415	10694.49
904.729	10644.78
905.042	10690.2
905.356	10570.88
905.67	10595.06
905.984	10593.93
906.297	10513.25
906.611	10415.86
906.924	10416.31
907.237	10413.82
907.551	10360.49
907.864	10253.83
908.177	10279.36
908.491	10226.48
908.804	10141.96
909.117	10117.11
909.43	10086.6
909.743	10064.23
910.056	10002.53
910.368	9951.91
910.681	9930.22
910.994	9820.62
911.307	9865.81
911.619	9699.94
911.932	9784.46
912.244	9660.62
912.557	9659.94
912.869	9593.96
913.181	9573.39
913.494	9625.37
913.806	9493.62
914.118	9480.51
914.43	9388.54
914.742	9499.27
915.054	9314.87
915.366	9301.76
915.678	9273.29
915.99	9289.33
916.302	9231.71
916.613	9212.5
916.925	9143.12
917.236	9173.63
917.548	9069
917.859	8996.23
918.171	8985.39
918.482	8895.44
918.794	8946.29
919.105	8907.42
919.416	8853.41
919.727	8825.39
920.038	8812.51
920.349	8783.81
920.66	8742.91
920.971	8651.83
921.282	8651.16
921.593	8560.99
921.903	8546.07
922.214	8553.98
922.525	8402.12
922.835	8499.07
923.146	8387.66
923.456	8373.88
923.767	8352.63
924.077	8368.45
924.387	8263.14
924.697	8311.28
925.008	8185.41
925.318	8242.58
925.628	8133.43
925.938	8126.2
926.248	7992.64
926.558	7966.65
926.867	8064.05
927.177	7928.92
927.487	7921.46
927.796	7864.51
928.106	7834.68
928.416	7827
928.725	7811.86
929.034	7722.82
929.344	7754.68
929.653	7675.36
929.962	7622.94
930.271	7579.77
930.581	7573.67
930.89	7550.39
931.199	7556.5
931.508	7478.98
931.817	7524.41
932.125	7503.39
932.434	7448.25
932.743	7290.29
933.051	7394.69
933.36	7275.37
933.669	7304.98
933.977	7213.45
934.286	7220.23
934.594	7188.82
934.902	7158.54
935.21	7100.46
935.519	7104.76
935.827	7099.33
936.135	6970.75
936.443	7000.58
936.751	6950.86
937.059	6977.53
937.367	6919.68
937.674	6893.24
937.982	6860.7
938.29	6868.83
938.597	6840.81
938.905	6722.39
939.213	6704.54
939.52	6679.23
939.827	6674.94
940.135	6646.46
940.442	6595.39
940.749	6598.78
941.056	6600.14
941.363	6552.68
941.67	6434.94
941.977	6483.53
942.284	6480.82
942.591	6365.12
942.898	6397.66
943.205	6420.93
943.511	6312.01
943.818	6331.67
944.125	6306.36
944.431	6300.26
944.738	6281.73
945.044	6255.97
945.35	6210.99
945.657	6116.53
945.963	6124.44
946.269	6060.26
946.575	6100.26
946.881	6022.75
947.187	6043.99
947.493	5951.34
947.799	6015.07
948.105	5921.06
948.41	5871.79
948.716	5909.53
949.022	5896.88
949.327	5836.99
949.633	5786.15
949.938	5779.59
950.244	5809.42
950.549	5662.31
950.854	5763.78
951.16	5706.6
951.465	5623.21
951.77	5631.8
952.075	5578.47
952.38	5578.47
952.685	5597.68
952.99	5558.13
953.294	5541.63
953.599	5467.51
953.904	5447.63
954.209	5441.52
954.513	5423.67
954.818	5414.18
955.122	5422.77
955.426	5349.77
955.731	5331.7
956.035	5280.4
956.339	5325.14
956.643	5251.7
956.948	5230.23
957.252	5167.86
957.556	5213.96
957.86	5187.52
958.163	5176.22
958.467	5159.72
958.771	5153.62
959.075	5137.12
959.378	5070.46
959.682	5064.81
959.985	5055.09
960.289	5016.9
960.592	4994.53
960.896	4984.59
961.199	4942.33
961.502	4914.76
961.805	4908.2
962.108	4865.27
962.411	4868.88
962.714	4834.31
963.017	4792.5
963.32	4828.43
963.623	4801.77
963.926	4703.69
964.228	4736.91
964.531	4711.15
964.833	4751.37
965.136	4672.96
965.438	4646.29
965.741	4596.8
966.043	4587.31
966.345	4604.94
966.648	4581.89
966.95	4583.69
967.252	4515.9
967.554	4505.73
967.856	4452.4
968.158	4490.59
968.46	4455.56
968.761	4458.95
969.063	4426.41
969.365	4439.52
969.666	4339.86
969.968	4340.08
970.269	4357.03
970.571	4323.36
970.872	4343.7
971.174	4303.02
971.475	4300.31
971.776	4194.55
972.077	4245.62
972.378	4251.72
972.679	4171.95
972.98	4234.78
973.281	4166.3
973.582	4135.12
973.883	4121.11
974.183	4116.81
974.484	4094.67
974.785	4110.71
975.085	4081.79
975.386	4070.26
975.686	3978.29
975.986	3990.26
976.287	3981.22
976.587	3973.77
976.887	3945.07
977.187	3950.49
977.487	3929.47
977.787	3884.05
978.087	3919.53
978.387	3868.91
978.687	3840.44
978.987	3793.66
979.286	3766.77
979.586	3738.74
979.885	3750.95
980.185	3691.51
980.484	3706.88
980.784	3727.67
981.083	3653.1
981.382	3698.52
981.682	3655.81
981.981	3641.12
982.28	3626.2
982.579	3614.23
982.878	3612.19
983.177	3574.68
983.475	3572.42
983.774	3542.14
984.073	3543.95
984.372	3520.44
984.67	3549.14
984.969	3532.65
985.267	3512.99
985.566	3479.99
985.864	3463.95
986.162	3433.67
986.461	3398.19
986.759	3382.82
987.057	3362.48
987.355	3357.06
987.653	3377.62
987.951	3319.55
988.249	3284.97
988.547	3292.88
988.844	3299.43
989.142	3274.57
989.44	3244.29
989.737	3227.12
990.035	3248.59
990.332	3186.89
990.63	3183.73
990.927	3161.13
991.224	3151.41
991.521	3142.15
991.819	3142.38
992.116	3097.4
992.413	3115.94
992.71	3072.77
993.006	3042.26
993.303	3019.89
993.6	3041.59
993.897	3041.81
994.193	2979.67
994.49	3004.3
994.787	2995.49
995.083	2957.52
995.379	2965.66
995.676	2926.11
995.972	2912.32
996.268	2902.61
996.565	2883.4
996.861	2871.87
997.157	2876.85
997.453	2830.97
997.749	2784.42
998.044	2808.6
998.34	2846.79
998.636	2777.19
998.932	2776.06
999.227	2783.74
999.523	2767.92
999.818	2758.66
1000.114	2734.48
1000.409	2677.53
1000.704	2714.59
1001	2680.01
1001.295	2676.4
1001.59	2644.08
1001.885	2610.86
1002.18	2611.32
1002.475	2607.47
1002.77	2612.22
1003.065	2589.62
1003.359	2578.32
1003.654	2547.81
1003.949	2541.49
1004.243	2534.93
1004.538	2510.3
1004.832	2506.23
1005.127	2484.99
1005.421	2480.47
1005.715	2429.63
1006.009	2456.74
1006.304	2428.27
1006.598	2401.38
1006.892	2430.76
1007.186	2389.4
1007.48	2364.54
1007.773	2337.88
1008.067	2359.8
1008.361	2331.77
1008.655	2304.2
1008.948	2320.48
1009.242	2315.05
1009.535	2276.64
1009.829	2300.36
1010.122	2256.07
1010.415	2223.08
1010.708	2230.99
1011.001	2203.87
1011.295	2203.87
1011.588	2202.29
1011.881	2174.49
1012.173	2157.99
1012.466	2133.59
1012.759	2136.3
1013.052	2143.98
1013.344	2106.02
1013.637	2094.04
1013.93	2083.87
1014.222	2058.11
1014.514	2091.1
1014.807	2059.01
1015.099	2037.32
1015.391	2008.17
1015.683	2018.56
1015.976	1996.87
1016.268	1981.73
1016.56	1955.51
1016.851	1937.89
1017.143	1969.07
1017.435	1920.26
1017.727	1921.16
1018.018	1934.27
1018.31	1911.45
1018.602	1884.55
1018.893	1877.1
1019.185	1855.18
1019.476	1863.99
1019.767	1856.76
1020.058	1832.13
1020.35	1789.87
1020.641	1802.52
1020.932	1808.62
1021.223	1777.21
1021.514	1765.46
1021.804	1721.85
1022.095	1740.38
1022.386	1716.88
1022.677	1733.6
1022.967	1687.5
1023.258	1677.1
1023.548	1709.87
1023.839	1679.59
1024.129	1673.71
1024.419	1655.18
1024.709	1614.73
1025	1615.41
1025.29	1605.69
1025.58	1618.35
1025.87	1561.4
1026.16	1560.27
1026.449	1559.82
1026.739	1557.56
1027.029	1561.17
1027.319	1565.69
1027.608	1553.94
1027.898	1536.32
1028.187	1522.76
1028.477	1522.98
1028.766	1496.32
1029.055	1468.07
1029.344	1454.06
1029.634	1465.81
1029.923	1447.96
1030.212	1435.3
1030.501	1459.26
1030.79	1428.3
1031.078	1446.6
1031.367	1400.27
1031.656	1397.79
1031.945	1365.47
1032.233	1371.12
1032.522	1360.73
1032.81	1344.46
1033.099	1365.7
1033.387	1355.53
1033.675	1338.35
1033.963	1326.15
1034.251	1366.38
1034.54	1314.4
1034.828	1306.94
1035.116	1282.99
1035.403	1261.52
1035.691	1280.73
1035.979	1267.17
1036.267	1259.94
1036.554	1237.34
1036.842	1234.63
1037.129	1230.56
1037.417	1246.15
1037.704	1226.95
1037.992	1200.73
1038.279	1231.46
1038.566	1180.39
1038.853	1180.39
1039.14	1180.39
