Data from 383_FLMS001491_008.txt Node
Date: Thu Apr 19 15:42:44 BST 2018
User: hsy
Spectrometer: FLMS00149
Trigger mode: 0
Integration Time (sec): 1.000000E-2
Scans to average: 10
Electric dark correction enabled: true
Nonlinearity correction enabled: false
Boxcar width: 0
XAxis mode: Wavelengths
Number of Pixels in Spectrum: 2048
>>>>>Begin Spectral Data<<<<<
341.393	-10.55
341.776	-10.55
342.16	-10.55
342.543	-50.55
342.927	-66.14
343.31	-74.73
343.693	-75.86
344.077	-65.24
344.46	-53.04
344.843	-68.85
345.226	-38.57
345.61	-31.79
345.993	-20.95
346.376	-20.95
346.759	23.35
347.142	43.01
347.525	43.23
347.908	60.63
348.291	75.1
348.674	85.72
349.057	118.94
349.44	120.75
349.823	142.21
350.206	158.71
350.588	250.69
350.971	217.92
351.354	248.2
351.737	258.14
352.119	286.84
352.502	298.14
352.884	282.78
353.267	305.6
353.65	315.32
354.032	352.83
354.414	337.46
354.797	353.28
355.179	351.02
355.562	351.25
355.944	347.41
356.326	371.59
356.709	379.04
357.091	383.11
357.473	374.07
357.855	374.07
358.238	380.85
358.62	365.94
359.002	379.72
359.384	375.2
359.766	379.04
360.148	377.46
360.53	366.16
360.912	383.34
361.294	391.02
361.676	369.78
362.057	372.26
362.439	375.43
362.821	351.25
363.203	378.59
363.584	386.28
363.966	380.17
364.348	362.77
364.729	378.37
365.111	359.84
365.493	349.21
365.874	358.93
366.256	337.91
366.637	367.29
367.019	364.58
367.4	348.99
367.781	347.18
368.163	350.57
368.544	350.57
368.925	366.84
369.306	363.9
369.688	383.56
370.069	384.92
370.45	354.86
370.831	349.44
371.212	364.58
371.593	372.72
371.974	360.97
372.355	376.78
372.736	364.58
373.117	400.06
373.498	360.51
373.879	365.48
374.26	392.6
374.641	371.13
375.021	371.36
375.402	386.5
375.783	382.43
376.163	417.69
376.544	394.41
376.925	399.16
377.305	380.63
377.686	385.15
378.066	382.21
378.447	403
378.827	413.39
379.208	399.16
379.588	419.27
379.968	411.36
380.349	415.88
380.729	387.18
381.109	410.68
381.489	391.47
381.87	410.68
382.25	397.12
382.63	406.84
383.01	418.59
383.39	390.34
383.77	414.97
384.15	407.52
384.53	445.26
384.91	433.96
385.29	455.43
385.67	440.96
386.049	440.29
386.429	440.74
386.809	443
387.189	449.78
387.568	453.39
387.948	434.18
388.328	461.98
388.707	448.19
389.087	450.91
389.466	466.5
389.846	474.41
390.225	479.38
390.605	473.5
390.984	470.34
391.363	479.15
391.743	490.68
392.122	497.01
392.501	460.62
392.881	516.67
393.26	506.05
393.639	514.63
394.018	499.49
394.397	503.79
394.776	516.22
395.155	508.08
395.534	506.5
395.913	502.43
396.292	520.28
396.671	527.29
397.05	529.77
397.429	525.03
397.808	521.41
398.186	525.03
398.565	546.27
398.944	538.36
399.323	544.92
399.701	537.01
400.08	581.98
400.458	558.02
400.837	549.43
401.215	563.67
401.594	560.28
401.972	551.02
402.351	556.67
402.729	570.68
403.107	577.68
403.486	582.88
403.864	592.37
404.242	575.87
404.62	595.99
404.999	607.29
405.377	614.74
405.755	618.36
406.133	608.64
406.511	619.72
406.889	634.4
407.267	619.26
407.645	642.54
408.023	656.32
408.401	659.04
408.779	647.96
409.156	672.14
409.534	650.45
409.912	683.67
410.29	679.83
410.667	696.55
411.045	694.52
411.422	689.54
411.8	706.72
412.178	725.7
412.555	724.8
412.933	709.43
413.31	710.79
413.687	729.32
414.065	737.68
414.442	750.11
414.819	769.54
415.197	750.79
415.574	757.56
415.951	773.84
416.328	774.74
416.705	790.78
417.082	786.72
417.46	814.29
417.837	778.13
418.214	816.09
418.591	828.75
418.967	816.09
419.344	820.61
419.721	827.17
420.098	827.17
420.475	850.44
420.852	855.42
421.228	860.39
421.605	862.65
421.982	889.76
422.358	850.67
422.735	862.65
423.111	863.1
423.488	897.9
423.864	895.41
424.241	895.87
424.617	914.62
424.994	934.28
425.37	916.66
425.746	935.19
426.123	929.54
426.499	919.14
426.875	958.01
427.251	979.71
427.627	983.32
428.003	976.32
428.379	974.06
428.756	985.58
429.132	1007.95
429.507	999.37
429.883	1057.9
430.259	1051.57
430.635	1056.31
431.011	1058.35
431.387	1066.94
431.763	1109.65
432.138	1086.14
432.514	1124.56
432.89	1108.52
433.265	1136.54
433.641	1169.98
434.016	1143.54
434.392	1192.81
434.767	1177.44
435.143	1161.62
435.518	1195.29
435.894	1236.87
436.269	1231.68
436.644	1263.31
437.02	1242.3
437.395	1250.43
437.77	1284.33
438.145	1281.17
438.52	1280.04
438.895	1330.88
439.271	1299.25
439.646	1312.8
440.021	1329.98
440.395	1334.72
440.77	1310.77
441.145	1336.98
441.52	1367.72
441.895	1369.07
442.27	1377.21
442.645	1361.84
443.019	1397.55
443.394	1418.11
443.769	1400.71
444.143	1439.58
444.518	1410.88
444.892	1429.64
445.267	1443.42
445.641	1469.41
446.016	1479.35
446.39	1504.89
446.764	1493.36
447.139	1494.49
447.513	1472.35
447.887	1467.15
448.262	1489.07
448.636	1513.7
449.01	1515.51
449.384	1519.58
449.758	1565
450.132	1572.23
450.506	1602.06
450.88	1601.61
451.254	1623.3
451.628	1614.04
452.002	1642.74
452.376	1644.1
452.75	1645
453.123	1701.49
453.497	1715.73
453.871	1693.13
454.244	1741.27
454.618	1762.51
454.992	1770.19
455.365	1777.2
455.739	1806.8
456.112	1797.31
456.486	1870.53
456.859	1863.07
457.232	1937.87
457.606	1922.28
457.979	1949.85
458.352	1966.57
458.725	1976.06
459.099	2007.93
459.472	2056.29
459.845	2059.23
460.218	2078.89
460.591	2103.29
460.964	2131.54
461.337	2164.31
461.71	2192.56
462.083	2243.18
462.456	2237.53
462.829	2220.58
463.201	2260.35
463.574	2283.4
463.947	2322.5
464.32	2359.56
464.692	2381.48
465.065	2357.07
465.438	2421.48
465.81	2465.09
466.183	2463.51
466.555	2506.22
466.928	2539.44
467.3	2515.26
467.672	2577.18
468.045	2634.35
468.417	2618.98
468.789	2639.32
469.161	2739.21
469.534	2741.92
469.906	2764.29
470.278	2784.86
470.65	2834.57
471.022	2867.11
471.394	2912.31
471.766	2915.25
472.138	2987.56
472.51	3001.57
472.882	3097.16
473.253	3130.84
473.625	3145.52
473.997	3258.06
474.369	3209.48
474.74	3275.01
475.112	3335.58
475.484	3352.75
475.855	3440.66
476.227	3512.07
476.598	3598.17
476.97	3633.87
477.341	3700.99
477.713	3736.7
478.084	3802.46
478.455	3840.2
478.827	3895.79
479.198	4025.73
479.569	4036.35
479.94	4104.82
480.311	4212.84
480.682	4297.81
481.053	4403.57
481.424	4484.7
481.795	4465.94
482.166	4618.48
482.537	4637.01
482.908	4793.16
483.279	4839.27
483.65	4915.87
484.021	5054.4
484.391	5152.93
484.762	5190.22
485.133	5297.56
485.503	5363.32
485.874	5521.28
486.244	5577.55
486.615	5726.25
486.985	5722.18
487.356	5882.18
487.726	5982.51
488.097	6149.06
488.467	6181.38
488.837	6347.02
489.207	6427.25
489.578	6563.97
489.948	6700.23
490.318	6861.81
490.688	6914.47
491.058	7055.48
491.428	7166.89
491.798	7266.09
492.168	7445.52
492.538	7573.43
492.908	7699.08
493.278	7871.73
493.648	7902.69
494.017	8045.96
494.387	8221.32
494.757	8330.47
495.126	8549.9
495.496	8672.61
495.866	8830.35
496.235	8944.02
496.605	9137.23
496.974	9263.1
497.344	9398.69
497.713	9562.76
498.082	9732.24
498.452	9841.17
498.821	9997.55
499.19	10174.49
499.559	10343.53
499.928	10516.63
500.298	10670.75
500.667	10823.74
501.036	10965.88
501.405	11249.72
501.774	11274.35
502.143	11512.99
502.512	11717.28
502.88	11934.22
503.249	11983.26
503.618	12243.82
503.987	12328.56
504.356	12535.56
504.724	12760.64
505.093	12973.29
505.462	13148.43
505.83	13393.16
506.199	13528.53
506.567	13763.1
506.936	13833.61
507.304	14166.93
507.672	14261.84
508.041	14544.32
508.409	14690.08
508.777	14965.55
509.145	15223.85
509.514	15274.02
509.882	15467.46
510.25	15571.19
510.618	15842.37
510.986	16036.94
511.354	16309.25
511.722	16435.57
512.09	16725.51
512.458	16709.91
512.826	16955.56
513.193	17101.09
513.561	17320.97
513.929	17515.09
514.297	17797.57
514.664	17919.37
515.032	18082.31
515.4	18381.06
515.767	18495.4
516.135	18621.95
516.502	18627.38
516.869	18990.53
517.237	19234.82
517.604	19191.66
517.972	19588.71
518.339	19696.28
518.706	19800.23
519.073	20016.49
519.44	20030.96
519.808	20437.05
520.175	20447.44
520.542	20809.01
520.909	20849.69
521.276	21041.1
521.643	21286.06
522.009	21378.72
522.376	21657.13
522.743	21837.46
523.11	22090.56
523.477	22216.66
523.843	22303.21
524.21	22638.8
524.577	22848.51
524.943	23035.4
525.31	23130.99
525.676	23345.45
526.043	23685.32
526.409	23723.97
526.776	23948.82
527.142	24005.77
527.508	24308.13
527.874	24427.68
528.241	24635.81
528.607	24722.58
528.973	25058.17
529.339	25069.24
529.705	25362.57
530.071	25486.86
530.437	25517.82
530.803	25882.55
531.169	25948.54
531.535	26014.53
531.901	26095.66
532.267	26280.28
532.632	26508.53
532.998	26516.21
533.364	26767.95
533.73	26885.69
534.095	26954.16
534.461	27051.34
534.826	27196.87
535.192	27279.13
535.557	27453.36
535.923	27579.01
536.288	27639.8
536.653	27713.92
537.019	27732
537.384	27899.22
537.749	27932.67
538.114	28016.96
538.479	27951.88
538.845	28205.43
539.21	28193.68
539.575	28333.56
539.94	28456.27
540.305	28448.36
540.67	28369.27
541.034	28492.43
541.399	28637.28
541.764	28695.81
542.129	28892.19
542.494	28910.72
542.858	28931.74
543.223	28929.25
543.587	29015.8
543.952	29044.28
544.316	29091.51
544.681	29173.99
545.045	29367.89
545.41	29290.37
545.774	29314.33
546.138	29466.87
546.503	29585.28
546.867	29522.91
547.231	29696.69
547.595	29678.84
547.959	29902.79
548.324	29965.38
548.688	29851.26
549.052	30149.56
549.416	29921.77
549.779	30087.87
550.143	30175.1
550.507	30333.96
550.871	30415.32
551.235	30273.4
551.599	30658.7
551.962	30613.28
552.326	30589.32
552.689	30634.52
553.053	30572.15
553.417	30677
553.78	30979.14
554.143	30901.18
554.507	30999.48
554.87	30967.84
555.234	31344.78
555.597	31166.93
555.96	31329.87
556.323	31333.94
556.686	31448.28
557.05	31664.1
557.413	31727.15
557.776	31668.39
558.139	31990.64
558.502	32067.7
558.865	32019.12
559.228	32386.11
559.59	32204.42
559.953	32239.45
560.316	32708.14
560.679	32501.36
561.041	32841.02
561.404	33023.61
561.767	33140.89
562.129	32983.38
562.492	33284.17
562.854	33352.19
563.217	33410.27
563.579	33509.25
563.941	33675.34
564.304	33772.06
564.666	34140.64
565.028	34075.11
565.39	34115.56
565.753	34392.61
566.115	34328.66
566.477	34496.79
566.839	34615.43
567.201	34921.86
567.563	34840.74
567.925	35165.7
568.287	35185.13
568.648	35296.54
569.01	35422.64
569.372	35732.24
569.734	35578.12
570.095	35838.45
570.457	36100.36
570.819	36002.74
571.18	36046.13
571.542	36268.72
571.903	36273.69
572.265	36419.9
572.626	36510.52
572.987	36622.84
573.349	36739.22
573.71	36763.85
574.071	36955.26
574.432	37210.39
574.794	37391.4
575.155	37275.02
575.516	37281.12
575.877	37425.08
576.238	37250.16
576.599	37598.18
576.96	37622.58
577.32	37707.55
577.681	37739.42
578.042	37762.92
578.403	37826.42
578.763	37966.98
579.124	37788.46
579.485	38142.8
579.845	38192.51
580.206	38017.83
580.566	38066.64
580.927	38031.61
581.287	38309.57
581.648	38115.68
582.008	38232.29
582.368	38220.99
582.728	38271.15
583.089	38164.94
583.449	38303.7
583.809	38146.41
584.169	38124.49
584.529	38136.02
584.889	38321.1
585.249	38122.23
585.609	38039.3
585.969	38301.44
586.329	38102.35
586.688	38152.74
587.048	38179.41
587.408	38203.13
587.768	38220.76
588.127	38188.9
588.487	38088.11
588.846	38355.9
589.206	37923.14
589.565	38017.6
589.925	38205.39
590.284	38214.89
590.643	38134.89
591.003	38106.41
591.362	38228.44
591.721	38200.42
592.08	38098.05
592.44	38144.38
592.799	38191.16
593.158	38136.69
593.517	37894.44
593.876	38167.2
594.235	38079.3
594.593	38135.79
594.952	38098.73
595.311	38020.99
595.67	37924.95
596.029	38209.91
596.387	38114.32
596.746	38314.77
597.104	37970.37
597.463	37902.58
597.822	38222.12
598.18	38017.6
598.538	38127.88
598.897	38207.2
599.255	37979.41
599.613	38343.24
599.972	38030.26
600.33	38252.85
600.688	38074.1
601.046	38278.39
601.404	38475.67
601.762	38376.69
602.12	38464.82
602.478	38428.21
602.836	38548.21
603.194	38287.65
603.552	38455.56
603.91	38378.04
604.268	38545.5
604.625	38553.18
604.983	38631.15
605.341	38433.86
605.698	38773.97
606.056	38956.79
606.413	38522.45
606.771	38966.96
607.128	38832.5
607.485	38853.74
607.843	38796.34
608.2	38969.67
608.557	38982.55
608.914	39091.25
609.272	39199.27
609.629	39325.14
609.986	39389.77
610.343	39261.64
610.7	39515.42
611.057	39438.36
611.414	39372.59
611.771	39566.49
612.127	39708.86
612.484	39756.54
612.841	39742.98
613.198	39551.35
613.554	39438.13
613.911	39878.34
614.267	39835.63
614.624	39888.06
614.98	40003.76
615.337	40212.12
615.693	40147.26
616.05	40194.72
616.406	40142.07
616.762	40164.89
617.118	40194.95
617.475	40115.85
617.831	40254.83
618.187	40333.25
618.543	40494.6
618.899	40566.24
619.255	40687.81
619.611	40730.07
619.967	40796.74
620.323	40874.48
620.678	40635.39
621.034	40644.88
621.39	40618.21
621.746	40635.84
622.101	41115.6
622.457	40709.51
622.812	41055.71
623.168	40955.15
623.523	41126.67
623.879	41100.46
624.234	40873.35
624.589	41059.1
624.945	41044.42
625.3	41105.2
625.655	41123.28
626.01	41154.47
626.365	41121.02
626.72	41017.98
627.075	41067.92
627.43	41160.34
627.785	41096.62
628.14	41054.13
628.495	41046.67
628.85	41099.33
629.205	40901.37
629.559	41182.49
629.914	41071.99
630.269	41141.36
630.623	40750.41
630.978	40756.74
631.332	40924.42
631.687	41025.21
632.041	40832.22
632.396	40790.41
632.75	40732.78
633.104	40711.09
633.459	40582.73
633.813	40567.14
634.167	40606.23
634.521	40587.7
634.875	40618.66
635.229	40537.99
635.583	40196.3
635.937	40223.19
636.291	40280.14
636.645	40307.03
636.999	40003.31
637.352	40141.84
637.706	39996.31
638.06	40175.96
638.413	39956.31
638.767	39974.61
639.121	39954.5
639.474	39850.1
639.828	39878.12
640.181	39744.11
640.534	39868.63
640.888	39652.14
641.241	39425.02
641.594	39602.65
641.947	39615.07
642.301	39426.15
642.654	39451.01
643.007	39406.72
643.36	39467.28
643.713	39347.51
644.066	39527.17
644.419	39315.87
644.771	38761.99
645.124	38514.09
645.477	38509.34
645.83	38449
646.182	38456.46
646.535	38394.77
646.888	38352.73
647.24	38162.46
647.593	38357.93
647.945	38227.31
648.298	38157.03
648.65	37988.9
649.002	37818.96
649.355	37691.73
649.707	37371.52
650.059	37420.1
650.411	37985.06
650.763	38275
651.115	38828.2
651.467	38689.9
651.819	38747.07
652.171	38601.32
652.523	38666.62
652.875	38551.83
653.227	38440.64
653.578	38745.72
653.93	38549.11
654.282	38245.84
654.633	38378.95
654.985	38430.7
655.337	38423.92
655.688	38382.34
656.039	38501.43
656.391	38196.58
656.742	38315
657.094	38205.17
657.445	38444.03
657.796	38401.32
658.147	38422.79
658.498	38322.45
658.849	38362.9
659.2	38264.38
659.551	38310.48
659.902	38564.71
660.253	38306.41
660.604	38459.4
660.955	38208.33
661.306	38475.22
661.656	38247.88
662.007	38249.23
662.358	38412.17
662.708	38505.95
663.059	38440.87
663.409	38144.6
663.76	38451.49
664.11	38571.49
664.461	38475.22
664.811	38507.98
665.161	38539.62
665.511	38498.27
665.862	38436.57
666.212	38405.61
666.562	38467.99
666.912	38397.25
667.262	38356.12
667.612	38411.72
667.962	38373.52
668.312	38397.25
668.662	38451.94
669.011	38284.26
669.361	38444.03
669.711	38357.93
670.06	38186.19
670.41	38276.8
670.76	38387.54
671.109	38324.71
671.459	38206.98
671.808	38309.8
672.157	38363.81
672.507	38061.67
672.856	38095.79
673.205	38138.95
673.554	38170.14
673.904	38099.41
674.253	38411.94
674.602	37972.18
674.951	37537.61
675.3	37378.97
675.649	38004.5
675.998	38062.57
676.346	38077.94
676.695	38142.8
677.044	37900.99
677.393	38076.58
677.741	37864.61
678.09	37773.77
678.438	37793.88
678.787	37866.19
679.135	37855.8
679.484	37672.98
679.832	37719.3
680.181	37563.83
680.529	37608.57
680.877	37375.36
681.225	37470.5
681.573	37681.11
681.922	37451.52
682.27	37350.27
682.618	37315.47
682.966	37302.14
683.314	37358.64
683.661	37112.77
684.009	37020.57
684.357	37013.56
684.705	36844.75
685.053	36910.06
685.4	36743.51
685.748	36713.23
686.095	36730.86
686.443	36519.79
686.79	36426.23
687.138	36604.76
687.485	36420.13
687.832	36425.55
688.18	36179.46
688.527	36219.91
688.874	36259.91
689.221	36141.49
689.568	35938.11
689.915	35748.51
690.262	35895.4
690.609	35727.49
690.956	35551.23
691.303	35479.82
691.65	35338.58
691.997	35383.1
692.344	35092.71
692.69	35054.52
693.037	35113.27
693.383	34739.27
693.73	34838.93
694.077	34590.12
694.423	34550.35
694.769	34537.24
695.116	34404.59
695.462	34269.45
695.808	34119.17
696.155	34099.29
696.501	33723.48
696.847	33862.91
697.193	33609.13
697.539	33590.6
697.885	33313.54
698.231	33269.48
698.577	33418.4
698.923	33194.23
699.269	33013.44
699.614	32930.5
699.96	32742.26
700.306	32746.78
700.651	32529.61
700.997	32403.96
701.342	32218.66
701.688	32367.13
702.033	32168.94
702.379	32112.22
702.724	32115.84
703.069	32039.91
703.415	31687.6
703.76	31709.52
704.105	31647.83
704.45	31607.15
704.795	31316.31
705.14	31287.16
705.485	31302.75
705.83	31039.25
706.175	31241.06
706.52	31076.99
706.865	31013.49
707.209	30821.41
707.554	30831.58
707.899	30673.84
708.243	30596.1
708.588	30584.13
708.932	30418.71
709.277	30370.8
709.621	30265.72
709.966	30095.55
710.31	30155.89
710.654	29853.3
710.998	29987.53
711.342	29944.82
711.687	29674.77
712.031	29717.03
712.375	29518.16
712.719	29619.4
713.063	29498.96
713.407	29609.91
713.75	29377.15
714.094	29313.65
714.438	29188.68
714.782	29229.13
715.125	29101.9
715.469	29411.27
715.812	29159.98
716.156	29040.66
716.499	28985.52
716.843	29029.82
717.186	28816.49
717.53	29024.62
717.873	28993.66
718.216	28868.46
718.559	28757.51
718.902	28519.32
719.246	28706.43
719.589	28478.87
719.932	28401.81
720.275	28501.92
720.617	28590.51
720.96	28437.97
721.303	28532.88
721.646	28471.86
721.989	28218.31
722.331	28388.48
722.674	28423.73
723.016	28268.25
723.359	28004.98
723.701	28284.98
724.044	28171.76
724.386	28154.58
724.729	28172.21
725.071	28105.09
725.413	28086.79
725.755	28057.86
726.097	27956.17
726.439	27893.12
726.782	27861.03
727.124	28017.86
727.465	27760.02
727.807	27853.8
728.149	27896.96
728.491	27817.87
728.833	27844.76
729.175	27800.92
729.516	27740.58
729.858	27781.49
730.199	27783.29
730.541	27733.58
730.882	27737.65
731.224	27830.07
731.565	27567.26
731.906	27713.92
732.248	27719.12
732.589	27475.51
732.93	27522.28
733.271	27667.37
733.612	27523.87
733.953	27682.51
734.294	27590.76
734.635	27462.85
734.976	27710.53
735.317	27529.52
735.658	27626.01
735.999	27532.23
736.339	27631.21
736.68	27701.94
737.021	27733.35
737.361	27535.39
737.702	27830.53
738.042	27564.54
738.383	27709.85
738.723	27691.55
739.063	27627.14
739.404	27668.04
739.744	27699.23
740.084	27567.93
740.424	27781.26
740.764	27794.59
741.104	27931.77
741.444	27816.29
741.784	27655.39
742.124	27902.84
742.464	27816.51
742.804	27837.98
743.143	27783.97
743.483	27867.81
743.823	27785.78
744.162	27811.09
744.502	27966.57
744.841	28008.15
745.181	28115.94
745.52	28004.76
745.86	28110.29
746.199	28170.63
746.538	28217.18
746.877	28199.1
747.216	28251.31
747.556	28351.64
747.895	28491.98
748.234	28403.62
748.573	28517.96
748.911	28501.92
749.25	28587.57
749.589	28574.91
749.928	28775.36
750.267	28769.26
750.605	28711.86
750.944	28913.21
751.283	28824.62
751.621	28952.76
751.96	28947.56
752.298	29046.31
752.636	29054.22
752.975	28985.98
753.313	29090.61
753.651	29312.07
753.989	29101.9
754.327	29178.96
754.666	29153.65
755.004	29348.9
755.342	29430.48
755.679	29490.59
756.017	29328.34
756.355	29613.53
756.693	29535.34
757.031	29641.1
757.368	29537.15
757.706	29777.14
758.044	29783.92
758.381	29679.97
758.719	29754.77
759.056	29844.03
759.394	29811.04
759.731	29710.02
760.068	29794.54
760.405	29834.99
760.743	29832.73
761.08	29803.58
761.417	29949.57
761.754	29872.28
762.091	29969.9
762.428	29922.9
762.765	29826.63
763.102	29959.96
763.438	29829.34
763.775	29893.3
764.112	29806.97
764.449	29887.42
764.785	29859.85
765.122	29753.64
765.458	29595.45
765.795	29730.14
766.131	29872.73
766.467	29664.15
766.804	29583.25
767.14	29438.62
767.476	29454.21
767.812	29486.98
768.148	29443.36
768.485	29496.47
768.821	29232.3
769.157	29268
769.492	29403.37
769.828	29270.04
770.164	29101.9
770.5	29041.34
770.836	29047.67
771.171	28937.61
771.507	28938.52
771.842	28836.37
772.178	28806.77
772.513	28680.67
772.849	28560
773.184	28578.98
773.519	28454.92
773.855	28400.91
774.19	28225.09
774.525	28202.27
774.86	28191.87
775.195	28127.01
775.53	28007.47
775.865	27762.5
776.2	27758.44
776.535	27650.19
776.87	27520.02
777.205	27481.83
777.539	27479.57
777.874	27418.78
778.209	27219.92
778.543	27229.64
778.878	27160.94
779.212	26988.74
779.547	26925.01
779.881	26845.01
780.215	26696.32
780.55	26769.76
780.884	26549.43
781.218	26592.59
781.552	26423.1
781.886	26372.03
782.22	26226.73
782.554	26076.45
782.888	25860.86
783.222	25851.37
783.556	25853.85
783.889	25730.02
784.223	25577.25
784.557	25549.46
784.89	25687.08
785.224	25393.98
785.557	25301.55
785.891	25279.63
786.224	25360.31
786.558	25140.2
786.891	24902.69
787.224	24887.78
787.557	24743.15
787.891	24793.54
788.224	24683.04
788.557	24614.56
788.89	24573.21
789.223	24467.22
789.556	24279.21
789.888	24192.65
790.221	24135.71
790.554	24079.44
790.887	24038.76
791.219	23854.81
791.552	23881.02
791.884	23773.46
792.217	23831.08
792.549	23650.07
792.882	23449.85
793.214	23404.2
793.546	23516.29
793.879	23326.69
794.211	23056.41
794.543	23288.95
794.875	23095.51
795.207	23086.92
795.539	22949.3
795.871	23047.15
796.203	22888.51
796.535	22779.13
796.867	22663.66
797.198	22695.29
797.53	22592.47
797.862	22338.69
798.193	22474.06
798.525	22346.6
798.856	22356.32
799.188	22100.05
799.519	21992.71
799.85	21952.71
800.182	21917.91
800.513	22000.85
800.844	21709.1
801.175	21950.68
801.506	21802.44
801.837	21722.21
802.168	21489.22
802.499	21616.23
802.83	21463.01
803.161	21342.11
803.491	21419.39
803.822	21385.27
804.153	21203.13
804.483	21121.78
804.814	21053.3
805.145	21026.64
805.475	21009.69
805.805	21013.98
806.136	20965.17
806.466	20899.41
806.796	20829.13
807.126	20746.87
807.457	20615.35
807.787	20738.73
808.117	20635.69
808.447	20555.46
808.777	20686.31
809.107	20469.36
809.436	20397.5
809.766	20411.06
810.096	20477.27
810.426	20263.04
810.755	20425.75
811.085	20245.64
811.414	20243.61
811.744	20066.44
812.073	20074.12
812.403	19973.33
812.732	19968.13
813.061	20108.24
813.39	19879.1
813.719	19854.69
814.049	19982.14
814.378	19799.1
814.707	19755.03
815.036	19677.07
815.365	19581.7
815.693	19530.4
816.022	19517.07
816.351	19458.77
816.68	19300.35
817.008	19378.32
817.337	19256.06
817.665	19220.36
817.994	19203.63
818.322	19351.43
818.651	19161.83
818.979	19108.49
819.307	19119.12
819.636	19010.42
819.964	19040.93
820.292	19049.97
820.62	18994.37
820.948	19021.72
821.276	19081.38
821.604	18882.06
821.932	19077.08
822.259	18940.36
822.587	19057.42
822.915	18959.35
823.243	19075.95
823.57	18929.97
823.898	19106.23
824.225	18910.99
824.553	18960.48
824.88	19016.75
825.207	18987.59
825.535	18901.04
825.862	19070.3
826.189	18956.41
826.516	19130.64
826.843	19038.89
827.17	19177.42
827.497	19026.69
827.824	19085.67
828.151	19030.98
828.478	18955.5
828.805	19131.32
829.131	19095.16
829.458	19033.02
829.785	18956.18
830.111	18965
830.438	19020.36
830.764	19029.4
831.09	19111.66
831.417	18975.16
831.743	18977.2
832.069	18986.46
832.395	18921.16
832.722	18910.31
833.048	18949.18
833.374	19017.2
833.7	18917.31
834.026	18970.42
834.351	18934.04
834.677	18982.4
835.003	18890.87
835.329	18899.69
835.654	18830.31
835.98	18806.58
836.306	18917.77
836.631	18693.82
836.956	18901.72
837.282	18886.13
837.607	18680.03
837.932	18725.23
838.258	18698.34
838.583	18639.35
838.908	18572.69
839.233	18702.63
839.558	18498.57
839.883	18467.16
840.208	18455.18
840.533	18470.09
840.858	18509.41
841.182	18412.02
841.507	18490.21
841.832	18346.48
842.156	18352.36
842.481	18320.72
842.805	18266.26
843.13	18111.68
843.454	18216.31
843.778	18100.61
844.103	18042.53
844.427	18075.75
844.751	18045.7
845.075	17940.84
845.399	17923.67
845.723	17792.82
846.047	17864.46
846.371	17767.29
846.695	17746.5
847.019	17562.09
847.343	17558.48
847.666	17495.88
847.99	17426.05
848.313	17336.11
848.637	17367.3
848.96	17213.18
849.284	17274.87
849.607	17075.1
849.931	17060.86
850.254	16950.13
850.577	16797.14
850.9	16815.45
851.223	16791.72
851.546	16635.34
851.869	16577.26
852.192	16633.53
852.515	16475.57
852.838	16409.58
853.161	16417.94
853.483	16280.55
853.806	16324.16
854.129	16259.3
854.451	16167.56
854.774	16151.96
855.096	16034.68
855.419	15980.44
855.741	15940.89
856.063	15836.26
856.385	15827.45
856.708	15833.33
857.03	15858.86
857.352	15741.13
857.674	15733.22
857.996	15591.75
858.318	15525.09
858.64	15496.39
858.961	15441.7
859.283	15375.71
859.605	15417.52
859.926	15393.34
860.248	15323.28
860.57	15275.6
860.891	15237.86
861.212	15266.34
861.534	15093.23
861.855	15087.36
862.176	15137.98
862.498	15200.35
862.819	15142.5
863.14	14977.08
863.461	15063.63
863.782	14981.15
864.103	14929.17
864.424	14841.94
864.745	14953.8
865.065	14901.6
865.386	14806.69
865.707	14799
866.027	14729.4
866.348	14752.68
866.668	14728.72
866.989	14685.11
867.309	14687.37
867.63	14587.03
867.95	14660.7
868.27	14604.21
868.59	14571.44
868.91	14505.23
869.23	14512.46
869.55	14413.48
869.87	14485.34
870.19	14369.18
870.51	14375.29
870.83	14397.66
871.15	14234.5
871.469	14265.46
871.789	14337.77
872.109	14288.28
872.428	14237.21
872.748	14270.43
873.067	14173.48
873.386	14314.72
873.706	14100.94
874.025	14111.11
874.344	14118.57
874.663	14146.59
874.982	14137.33
875.301	14108.4
875.62	13964
875.939	13995.86
876.258	13978.23
876.577	13974.39
876.896	13929.87
877.214	13965.58
877.533	13991.57
877.852	13858.92
878.17	13897.78
878.489	13935.3
878.807	13796.32
879.125	13782.53
879.444	13783.66
879.762	13739.6
880.08	13759.48
880.398	13576.66
880.716	13691.24
881.034	13727.39
881.352	13753.16
881.67	13586.83
881.988	13586.83
882.306	13492.6
882.624	13532.6
882.941	13556.1
883.259	13440.85
883.577	13453.05
883.894	13357.69
884.212	13445.82
884.529	13313.39
884.846	13298.48
885.164	13199.5
885.481	13202.44
885.798	13189.33
886.115	13133.06
886.432	13188.88
886.75	13209.21
887.067	13096.9
887.383	13129.44
887.7	13019.62
888.017	12971.25
888.334	12851.71
888.651	12927.87
888.967	12881.31
889.284	12854.87
889.6	12795.44
889.917	12724.93
890.233	12749.57
890.55	12776.46
890.866	12693.3
891.182	12678.83
891.498	12643.13
891.815	12523.36
892.131	12466.86
892.447	12533.53
892.763	12444.49
893.079	12450.14
893.395	12413.53
893.71	12385.96
894.026	12306.41
894.342	12303.02
894.657	12157.94
894.973	12169.47
895.289	12164.27
895.604	12083.59
895.92	11985.52
896.235	12001.79
896.55	11953.88
896.865	11934.45
897.181	11872.98
897.496	11868.01
897.811	11771.74
898.126	11711.4
898.441	11732.87
898.756	11735.58
899.071	11712.53
899.386	11785.52
899.7	11603.83
900.015	11627.11
900.33	11486.32
900.644	11428.47
900.959	11448.13
901.273	11395.93
901.588	11358.87
901.902	11274.58
902.216	11305.31
902.531	11225.99
902.845	11204.07
903.159	11166.33
903.473	11080.23
903.787	11051.31
904.101	11105.09
904.415	11026.45
904.729	11004.75
905.042	10927.24
905.356	10873.23
905.67	10927.47
905.984	10906.45
906.297	10778.09
906.611	10728.83
906.924	10711.43
907.237	10692.44
907.551	10605.67
907.864	10595.72
908.177	10544.65
908.491	10581.71
908.804	10456.07
909.117	10395.73
909.43	10318.22
909.743	10247.71
910.056	10276.86
910.368	10233.02
910.681	10162.74
910.994	10190.99
911.307	10112.12
911.619	9985.12
911.932	10115.06
912.244	9943.99
912.557	10016.76
912.869	9879.81
913.181	9863.31
913.494	9861.05
913.806	9738.12
914.118	9750.32
914.43	9693.38
914.742	9703.09
915.054	9625.81
915.366	9632.13
915.678	9492.93
915.99	9523.44
916.302	9525.92
916.613	9411.57
916.925	9358.24
917.236	9408.18
917.548	9302.2
917.859	9246.16
918.171	9264.01
918.482	9171.58
918.794	9169.32
919.105	9113.73
919.416	9063.11
919.727	9065.14
920.038	9061.08
920.349	8963
920.66	8910.57
920.971	8884.13
921.282	8821.31
921.593	8832.83
921.903	8711.71
922.214	8766.85
922.525	8661.76
922.835	8651.59
923.146	8659.5
923.456	8522.11
923.767	8529.11
924.077	8506.51
924.387	8523.46
924.697	8481.43
925.008	8448.89
925.318	8391.94
925.628	8347.2
925.938	8290.02
926.248	8222
926.558	8257.03
926.867	8283.69
927.177	8150.36
927.487	8147.43
927.796	8068.11
928.106	8102.46
928.416	8024.94
928.725	7983.59
929.034	7889.58
929.344	7948.34
929.653	7897.94
929.962	7809.58
930.271	7838.73
930.581	7845.51
930.89	7813.2
931.199	7679.19
931.508	7696.14
931.817	7699.3
932.125	7592.87
932.434	7606.88
932.743	7555.58
933.051	7497.05
933.36	7549.7
933.669	7472.64
933.977	7442.13
934.286	7383.38
934.594	7359.2
934.902	7381.8
935.21	7273.78
935.519	7313.1
935.827	7253.44
936.135	7201.24
936.443	7153.33
936.751	7103.39
937.059	7128.02
937.367	7111.07
937.674	7083.95
937.982	7035.14
938.29	7044.41
938.597	6997.63
938.905	6902.26
939.213	6925.54
939.52	6909.49
939.827	6820
940.135	6855.48
940.442	6822.49
940.749	6798.54
941.056	6813.68
941.363	6666.34
941.67	6675.6
941.977	6644.42
942.284	6614.81
942.591	6572.78
942.898	6580.24
943.205	6544.08
943.511	6456.17
943.818	6489.62
944.125	6439.68
944.431	6459.34
944.738	6403.97
945.044	6405.78
945.35	6350.86
945.657	6318.32
945.963	6324.65
946.269	6244.2
946.575	6237.42
946.881	6232
947.187	6219.57
947.493	6182.05
947.799	6119.68
948.105	6148.16
948.41	6033.58
948.716	6124.2
949.022	6044.43
949.327	6017.09
949.633	5912.01
949.938	5948.84
950.244	5966.24
950.549	5908.16
950.854	5866.81
951.16	5860.03
951.465	5771.22
951.77	5770.99
952.075	5780.48
952.38	5698.45
952.685	5722.86
952.99	5650.32
953.294	5709.98
953.599	5657.1
953.904	5593.6
954.209	5611.22
954.513	5556.08
954.818	5559.47
955.122	5563.77
955.426	5531
955.731	5484.22
956.035	5461.17
956.339	5401.06
956.643	5378.46
956.948	5367.61
957.252	5330.55
957.556	5379.36
957.86	5326.71
958.163	5348.86
958.467	5324
958.771	5304.56
959.075	5236.32
959.378	5188.63
959.682	5224.11
959.985	5132.59
960.289	5152.93
960.592	5079.26
960.896	5115.42
961.199	5057.11
961.502	5093.27
961.805	5069.54
962.108	4997
962.411	5020.5
962.714	4946.16
963.017	4937.79
963.32	4952.03
963.623	4933.05
963.926	4875.65
964.228	4864.8
964.531	4877.68
964.833	4841.53
965.136	4824.8
965.438	4778.02
965.741	4755.43
966.043	4739.38
966.345	4740.06
966.648	4712.72
966.95	4663.22
967.252	4680.17
967.554	4634.75
967.856	4627.07
968.158	4620.74
968.46	4567.63
968.761	4576.45
969.063	4566.05
969.365	4474.3
969.666	4481.08
969.968	4464.13
970.269	4449.9
970.571	4434.76
970.872	4400.63
971.174	4401.76
971.475	4392.27
971.776	4366.51
972.077	4335.32
972.378	4318.15
972.679	4301.2
972.98	4236.12
973.281	4240.86
973.582	4311.82
973.883	4225.95
974.183	4225.5
974.484	4167.87
974.785	4136.91
975.085	4131.49
975.386	4127.65
975.686	4098.27
975.986	4080.87
976.287	4091.94
976.587	4051.94
976.887	4070.25
977.187	4012.17
977.487	4023.47
977.787	3971.49
978.087	3966.75
978.387	3941.66
978.687	3959.06
978.987	3920.19
979.286	3900.08
979.586	3913.19
979.885	3859.18
980.185	3859.86
980.484	3865.73
980.784	3822.57
981.083	3776.69
981.382	3793.19
981.682	3783.7
981.981	3776.47
982.28	3728.33
982.579	3738.96
982.878	3689.24
983.177	3693.53
983.475	3663.7
983.774	3638.39
984.073	3647.66
984.372	3595.91
984.67	3617.6
984.969	3576.25
985.267	3540.32
985.566	3553.65
985.864	3550.49
986.162	3557.49
986.461	3462.35
986.759	3457.38
987.057	3463.26
987.355	3446.08
987.653	3460.09
987.951	3430.04
988.249	3397.72
988.547	3396.59
988.844	3382.13
989.142	3336.71
989.44	3338.51
989.737	3321.34
990.035	3291.28
990.332	3289.02
990.63	3292.64
990.927	3319.98
991.224	3211.51
991.521	3232.75
991.819	3239.99
992.116	3237.95
992.413	3173.55
992.71	3140.1
993.006	3178.97
993.303	3138.29
993.6	3116.37
993.897	3099.88
994.193	3091.29
994.49	3077.05
994.787	3043.38
995.083	3075.24
995.379	2997.28
995.676	3012.19
995.972	3015.13
996.268	3011.52
996.565	2948.24
996.861	2947.34
997.157	2960.9
997.453	2931.97
997.749	2909.37
998.044	2884.51
998.34	2895.14
998.636	2879.54
998.932	2842.26
999.227	2835.93
999.523	2840.67
999.818	2795.7
1000.114	2813.1
1000.409	2787.57
1000.704	2762.71
1001	2752.31
1001.295	2722.03
1001.59	2739.89
1001.885	2715.48
1002.18	2676.38
1002.475	2678.19
1002.77	2668.48
1003.065	2620.11
1003.359	2648.81
1003.654	2625.31
1003.949	2586.9
1004.243	2560.23
1004.538	2591.87
1004.832	2572.66
1005.127	2574.24
1005.421	2525.2
1005.715	2507.8
1006.009	2521.36
1006.304	2473.9
1006.598	2483.62
1006.892	2470.97
1007.186	2426.9
1007.48	2417.63
1007.773	2415.6
1008.067	2383.28
1008.361	2357.97
1008.655	2381.7
1008.948	2360.69
1009.242	2353.68
1009.535	2345.77
1009.829	2311.2
1010.122	2295.15
1010.415	2296.51
1010.708	2290.86
1011.001	2297.19
1011.295	2256.73
1011.588	2231.2
1011.881	2252.21
1012.173	2217.87
1012.466	2188.71
1012.759	2179
1013.052	2174.93
1013.344	2168.15
1013.637	2153.01
1013.93	2162.95
1014.222	2137.87
1014.514	2125.66
1014.807	2121.82
1015.099	2100.58
1015.391	2064.88
1015.683	2051.09
1015.976	2023.07
1016.268	2014.03
1016.56	2021.71
1016.851	1996.18
1017.143	1993.92
1017.435	1977.87
1017.727	1972.67
1018.018	1980.81
1018.31	1955.27
1018.602	1955.5
1018.893	1906.24
1019.185	1888.16
1019.476	1888.16
1019.767	1863.07
1020.058	1859
1020.35	1836.86
1020.641	1844.32
1020.932	1822.85
1021.223	1832.11
1021.514	1770.87
1021.804	1803.41
1022.095	1811.55
1022.386	1787.14
1022.677	1758.22
1022.967	1720.48
1023.258	1714.83
1023.548	1706.24
1023.839	1710.99
1024.129	1688.39
1024.419	1717.77
1024.709	1690.65
1025	1678.44
1025.29	1681.16
1025.58	1626.69
1025.87	1647.71
1026.16	1597.77
1026.449	1615.85
1026.739	1563.87
1027.029	1596.86
1027.319	1559.13
1027.608	1562.52
1027.898	1559.8
1028.187	1544.21
1028.477	1541.72
1028.766	1561.39
1029.055	1503.53
1029.344	1523.65
1029.634	1522.06
1029.923	1471.44
1030.212	1498.56
1030.501	1469.41
1030.79	1454.04
1031.078	1416.76
1031.367	1442.97
1031.656	1443.42
1031.945	1433.25
1032.233	1432.12
1032.522	1402.07
1032.81	1366.14
1033.099	1375.4
1033.387	1368.85
1033.675	1379.47
1033.963	1347.61
1034.251	1338.57
1034.54	1325.46
1034.828	1325.01
1035.116	1314.84
1035.403	1305.57
1035.691	1306.93
1035.979	1288.4
1036.267	1278
1036.554	1256.53
1036.842	1267.83
1037.129	1259.7
1037.417	1254.5
1037.704	1243.88
1037.992	1231.68
1038.279	1235.74
1038.566	1227.83
1038.853	1227.83
1039.14	1227.83
