Data from 485_FLMS001491_006.txt Node
Date: Thu Apr 19 16:32:19 BST 2018
User: hsy
Spectrometer: FLMS00149
Trigger mode: 0
Integration Time (sec): 1.000000E-2
Scans to average: 10
Electric dark correction enabled: true
Nonlinearity correction enabled: false
Boxcar width: 0
XAxis mode: Wavelengths
Number of Pixels in Spectrum: 2048
>>>>>Begin Spectral Data<<<<<
341.393	-5
341.776	-5
342.16	-5
342.543	-57.43
342.927	-69.4
343.31	-69.63
343.693	-62.85
344.077	-61.5
344.46	-51.1
344.843	-57.88
345.226	-49.29
345.61	-34.15
345.993	-27.6
346.376	-8.62
346.759	18.05
347.142	29.8
347.525	47.43
347.908	51.5
348.291	74.32
348.674	85.85
349.057	115.67
349.44	99.18
349.823	163.58
350.206	192.96
350.588	251.26
350.971	271.83
351.354	264.82
351.737	282
352.119	293.52
352.502	287.42
352.884	311.15
353.267	343.69
353.65	329.68
354.032	352.5
354.414	368.55
354.797	350.02
355.179	364.71
355.562	390.24
355.944	386.63
356.326	387.08
356.709	373.3
357.091	394.76
357.473	396.57
357.855	410.13
358.238	412.39
358.62	419.17
359.002	404.03
359.384	393.63
359.766	390.24
360.148	400.64
360.53	389.34
360.912	388.89
361.294	397.25
361.676	399.28
362.057	393.18
362.439	414.88
362.821	410.58
363.203	411.94
363.584	379.85
363.966	387.08
364.348	386.63
364.729	402.22
365.111	399.06
365.493	392.96
365.874	363.13
366.256	402.22
366.637	390.7
367.019	392.5
367.4	385.95
367.781	387.31
368.163	393.41
368.544	397.25
368.925	384.59
369.306	407.87
369.688	386.85
370.069	413.29
370.45	419.85
370.831	403.8
371.212	412.39
371.593	382.33
371.974	378.72
372.355	416.01
372.736	405.61
373.117	393.63
373.498	413.52
373.879	395.67
374.26	380.98
374.641	393.41
375.021	394.31
375.402	402.45
375.783	425.05
376.163	418.94
376.544	412.39
376.925	445.38
377.305	418.72
377.686	420.98
378.066	425.95
378.447	437.93
378.827	456.91
379.208	432.5
379.588	438.6
379.968	427.31
380.349	424.82
380.729	445.84
381.109	434.76
381.489	449
381.87	440.64
382.25	466.17
382.63	448.55
383.01	464.14
383.39	465.27
383.77	444.71
384.15	476.57
384.53	462.78
384.91	466.63
385.29	464.82
385.67	489
386.049	494.2
386.429	493.74
386.809	482.22
387.189	495.78
387.568	473.63
387.948	494.87
388.328	498.94
388.707	510.01
389.087	503.69
389.466	526.51
389.846	517.47
390.225	509.79
390.605	503.46
390.984	516.34
391.363	530.81
391.743	538.49
392.122	526.51
392.501	519.73
392.881	543.69
393.26	554.99
393.639	551.6
394.018	536.68
394.397	537.13
394.776	544.82
395.155	545.72
395.534	536
395.913	545.95
396.292	591.37
396.671	576
397.05	576.68
397.429	580.3
397.808	596.34
398.186	569
398.565	598.37
398.944	576.91
399.323	592.05
399.701	595.66
400.08	623.23
400.458	599.73
400.837	631.37
401.215	619.62
401.594	605.83
401.972	604.7
402.351	615.55
402.729	644.93
403.107	636.11
403.486	618.49
403.864	649.45
404.242	675.66
404.62	646.51
404.999	680.63
405.377	656.9
405.755	680.18
406.133	686.73
406.511	669.56
406.889	662.78
407.267	687.19
407.645	728.77
408.023	721.53
408.401	685.15
408.779	721.53
409.156	732.83
409.534	737.35
409.912	745.26
410.29	749.56
410.667	751.82
411.045	801.31
411.422	790.91
411.8	769.67
412.178	794.3
412.555	827.52
412.933	809.22
413.31	810.57
413.687	841.98
414.065	820.74
414.442	830.68
414.819	835.43
415.197	861.87
415.574	894.19
415.951	863.45
416.328	870.23
416.705	893.96
417.082	901.42
417.46	901.87
417.837	913.39
418.214	925.6
418.591	912.72
418.967	914.07
419.344	903.22
419.721	924.69
420.098	935.99
420.475	941.42
420.852	959.27
421.228	960.85
421.605	989.55
421.982	991.81
422.358	1001.98
422.735	967.18
423.111	1003.34
423.488	1015.31
423.864	1048.53
424.241	1049.66
424.617	1037.23
424.994	1031.36
425.37	1056.44
425.746	1068.19
426.123	1064.58
426.499	1056.22
426.875	1094.41
427.251	1106.38
427.627	1096.89
428.003	1127.63
428.379	1130.79
428.756	1156.1
429.132	1168.75
429.507	1177.12
429.883	1202.2
430.259	1213.27
430.635	1233.61
431.011	1222.99
431.387	1233.84
431.763	1253.27
432.138	1256.21
432.514	1279.94
432.89	1280.39
433.265	1301.41
433.641	1319.03
434.016	1354.51
434.392	1368.98
434.767	1404.68
435.143	1376.43
435.518	1398.81
435.894	1422.53
436.269	1415.08
436.644	1430.22
437.02	1458.24
437.395	1441.52
437.77	1481.97
438.145	1507.95
438.52	1509.99
438.895	1543.66
439.271	1529.65
439.646	1547.05
440.021	1537.56
440.395	1587.27
440.77	1548.18
441.145	1568.52
441.52	1579.37
441.895	1597.67
442.27	1642.64
442.645	1618.91
443.019	1617.1
443.394	1620.27
443.769	1639.02
444.143	1621.17
444.518	1633.38
444.892	1661.85
445.267	1648.97
445.641	1693.03
446.016	1719.25
446.39	1730.32
446.764	1702.98
447.139	1716.54
447.513	1733.49
447.887	1733.03
448.262	1753.6
448.636	1752.69
449.01	1786.14
449.384	1800.15
449.758	1801.51
450.132	1829.08
450.506	1833.82
450.88	1851.67
451.254	1847.83
451.628	1876.08
452.002	1916.76
452.376	1931.9
452.75	1959.92
453.123	1964.67
453.497	1998.56
453.871	1995.63
454.244	2040.37
454.618	2044.44
454.992	2063.42
455.365	2059.8
455.739	2090.09
456.112	2133.25
456.486	2154.72
456.859	2191.1
457.232	2222.74
457.606	2265.45
457.979	2247.37
458.352	2269.06
458.725	2324.88
459.099	2346.35
459.472	2363.75
459.845	2393.58
460.218	2410.08
460.591	2435.39
460.964	2485.78
461.337	2485.1
461.71	2522.84
462.083	2560.13
462.456	2543.63
462.829	2570.75
463.201	2654.59
463.574	2622.95
463.947	2659.11
464.32	2714.93
464.692	2743.63
465.065	2752.89
465.438	2767.58
465.81	2817.75
466.183	2855.49
466.555	2890.74
466.928	2916.96
467.3	2921.25
467.672	2948.14
468.045	3004.86
468.417	3009.84
468.789	3072.43
469.161	3078.08
469.534	3135.03
469.906	3169.15
470.278	3195.37
470.65	3249.6
471.022	3289.6
471.394	3333.44
471.766	3389.26
472.138	3405.98
472.51	3469.71
472.882	3531.4
473.253	3548.35
473.625	3612.08
473.997	3675.58
474.369	3676.49
474.74	3709.7
475.112	3814.11
475.484	3828.12
475.855	3868.57
476.227	3931.62
476.598	4059.3
476.97	4063.82
477.341	4183.14
477.713	4232.85
478.084	4221.56
478.455	4339.74
478.827	4402.57
479.198	4490.25
479.569	4559.4
479.94	4607.99
480.311	4690.02
480.682	4808.43
481.053	4904.7
481.424	4960.97
481.795	5047.75
482.166	5135.88
482.537	5147.41
482.908	5268.31
483.279	5347.63
483.65	5493.61
484.021	5526.15
484.391	5604.12
484.762	5709.65
485.133	5710.33
485.503	5854.73
485.874	5967.05
486.244	5976.99
486.615	6134.95
486.985	6280.94
487.356	6350.54
487.726	6356.64
488.097	6571.1
488.467	6613.36
488.837	6729.96
489.207	6819.23
489.578	6963.4
489.948	7022.16
490.318	7191.65
490.688	7188.03
491.058	7339.21
491.428	7401.36
491.798	7461.7
492.168	7717.73
492.538	7692.88
492.908	7815.59
493.278	7931.06
493.648	7889.93
494.017	8028.69
494.387	8151.4
494.757	8201.11
495.126	8299.87
495.496	8471.61
495.866	8449.47
496.235	8583.47
496.605	8594.55
496.974	8717.71
497.344	8785.05
497.713	8861.21
498.082	8930.81
498.452	9001.09
498.821	9083.8
499.19	9105.72
499.559	9247.41
499.928	9285.15
500.298	9348.43
500.667	9425.03
501.036	9474.75
501.405	9522.21
501.774	9569.66
502.143	9717.68
502.512	9775.08
502.88	9840.16
503.249	9864.35
503.618	9952.7
503.987	9985.25
504.356	10113.15
504.724	10085.81
505.093	10116.32
505.462	10199.7
505.83	10277.44
506.199	10349.98
506.567	10459.58
506.936	10458.91
507.304	10598.79
507.672	10643.08
508.041	10798.33
508.409	10772.8
508.777	10815.73
509.145	10930.76
509.514	10918.1
509.882	11044.43
510.25	11036.97
510.618	11193.35
510.986	11210.07
511.354	11287.81
511.722	11393.34
512.09	11486.45
512.458	11444.64
512.826	11542.72
513.193	11620.23
513.561	11647.58
513.929	11751.75
514.297	11928.47
514.664	11996.27
515.032	12054.34
515.4	12084.17
515.767	12143.16
516.135	12191.52
516.502	12207.79
516.869	12410.27
517.237	12505.63
517.604	12496.82
517.972	12755.12
518.339	12746.53
518.706	12791.27
519.073	12851.61
519.44	12974.32
519.808	13157.59
520.175	13192.85
520.542	13310.58
520.909	13332.95
521.276	13456.57
521.643	13611.14
522.009	13727.52
522.376	13742.21
522.743	13868.99
523.11	13986.95
523.477	14137.91
523.843	14278.69
524.21	14361.63
524.577	14532.02
524.943	14588.29
525.31	14662.41
525.676	14916.19
526.043	15059.69
526.409	15103.98
526.776	15221.72
527.142	15286.8
527.508	15356.18
527.874	15546.68
528.241	15649.96
528.607	15778.31
528.973	15866.9
529.339	15932.21
529.705	16156.16
530.071	16148.47
530.437	16323.84
530.803	16412.2
531.169	16505.98
531.535	16631.4
531.901	16719.53
532.267	16839.98
532.632	16902.35
532.998	17003.59
533.364	17124.95
533.73	17225.51
534.095	17400.42
534.461	17364.26
534.826	17442.9
535.192	17609
535.557	17754.31
535.923	17736.23
536.288	17863.46
536.653	17953.62
537.019	18025.71
537.384	18074.07
537.749	18180.51
538.114	18107.74
538.479	18202.88
538.845	18343.9
539.21	18361.75
539.575	18412.59
539.94	18573.72
540.305	18655.53
540.67	18704.11
541.034	18758.8
541.399	18811.23
541.764	18862.98
542.129	19023.88
542.494	19030.88
542.858	19161.28
543.223	19078.79
543.587	19210.54
543.952	19268.39
544.316	19285.57
544.681	19257.09
545.045	19522.17
545.41	19518.78
545.774	19659.79
546.138	19654.14
546.503	19684.65
546.867	19746.8
547.231	19855.49
547.595	19963.97
547.959	20032.89
548.324	20139.33
548.688	20075.6
549.052	20194.69
549.416	20248.03
549.779	20199.67
550.143	20314.47
550.507	20527.57
550.871	20548.81
551.235	20571.63
551.599	20711.74
551.962	20650.05
552.326	20741.12
552.689	20818.63
553.053	20825.64
553.417	20979.53
553.78	21104.73
554.143	21220.88
554.507	21175.69
554.87	21255.91
555.234	21555.56
555.597	21470.37
555.96	21558.95
556.323	21692.73
556.686	21664.71
557.05	21765.05
557.413	21971.37
557.776	21998.04
558.139	22179.05
558.502	22297.69
558.865	22251.14
559.228	22521.19
559.59	22586.04
559.953	22645.03
560.316	22835.3
560.679	22896.54
561.041	22979.25
561.404	23244.56
561.767	23341.5
562.129	23213.37
562.492	23456.76
562.854	23563.65
563.217	23683.42
563.579	23716.64
563.941	23995.72
564.304	24096.06
564.666	24312.78
565.028	24292.44
565.39	24428.26
565.753	24652.43
566.115	24740.79
566.477	24925.64
566.839	24859.21
567.201	25179.2
567.563	25163.38
567.925	25463.71
568.287	25491.05
568.648	25754.55
569.01	25937.37
569.372	26126.74
569.734	26133.52
570.095	26255.78
570.457	26563.34
570.819	26515.43
571.18	26624.13
571.542	26906.61
571.903	26930.11
572.265	27193.16
572.626	27322.42
572.987	27347.05
573.349	27491.9
573.71	27728.51
574.071	27802.86
574.432	28105.9
574.794	28276.74
575.155	28267.48
575.516	28339.79
575.877	28537.98
576.238	28543.18
576.599	28860
576.96	28762.38
577.32	29033.78
577.681	29032.43
578.042	29301.8
578.403	29301.12
578.763	29388.35
579.124	29605.75
579.485	29856.81
579.845	30004.61
580.206	30049.58
580.566	30059.07
580.927	30285.73
581.287	30440.53
581.648	30544.25
582.008	30992.15
582.368	30946.5
582.728	31074.63
583.089	31210.22
583.449	31497.45
583.809	31595.75
584.169	31935.18
584.529	31843.88
584.889	32401.38
585.249	32468.27
585.609	32461.49
585.969	32976.73
586.329	33080.68
586.688	33554.8
587.048	33704.85
587.408	34121.11
587.768	34295.12
588.127	34613.52
588.487	34851.48
588.846	35526.5
589.206	35474.52
589.565	35986.82
589.925	36498.22
590.284	36780.93
590.643	37109.05
591.003	37835.81
591.362	38325.52
591.721	38629.24
592.08	39130.92
592.44	39676.67
592.799	40052.25
593.158	40506.03
593.517	40889.29
593.876	41491.54
594.235	41802.49
594.593	42349.82
594.952	42862.8
595.311	43183.24
595.67	43775.77
596.029	44425.02
596.387	45072.91
596.746	45633.57
597.104	45868.37
597.463	46297.74
597.822	46847.33
598.18	47280.08
598.538	47670.36
598.897	48306.05
599.255	48565.93
599.613	49469.86
599.972	49408.39
600.33	49991.43
600.688	50367.01
601.046	50718.19
601.404	51345.29
601.762	51539.41
602.12	52074.08
602.478	52285.15
602.836	52688.98
603.194	52765.82
603.552	53182.08
603.91	53381.17
604.268	53745.23
604.625	54070.41
604.983	54461.36
605.341	54558.31
605.698	54977.96
606.056	55326.88
606.413	55470.38
606.771	55855.68
607.128	56013.64
607.485	56245.72
607.843	56482.33
608.2	56805.03
608.557	57104.23
608.914	57201.86
609.272	57477.78
609.629	57799.36
609.986	57999.58
610.343	58101.49
610.7	58423.75
611.057	58495.16
611.414	58573.8
611.771	58926.33
612.127	59053.11
612.484	59246.32
612.841	59443.61
613.198	59533.55
613.554	59583.26
613.911	59942.12
614.267	60068.67
614.624	60142.35
614.98	60346.86
615.337	60602.22
615.693	60676.34
616.05	60749.33
616.406	60929.9
616.762	61008.76
617.118	61201.07
617.475	61211.7
617.831	61450.79
618.187	61570.1
618.543	61594.74
618.899	61865.46
619.255	61858.91
619.611	61895.07
619.967	62062.97
620.323	62243.08
620.678	62178.68
621.034	62286.02
621.39	62350.87
621.746	62381.38
622.101	62738.44
622.457	62610.53
622.812	62755.84
623.168	62875.15
623.523	62867.47
623.879	63031.99
624.234	62994.25
624.589	63074.47
624.945	63178.42
625.3	63250.29
625.655	63205.32
626.01	63253.9
626.365	63357.4
626.72	63263.39
627.075	63368.93
627.43	63444.41
627.785	63419.1
628.14	63453.44
628.495	63499.09
628.85	63520.56
629.205	63500.67
629.559	63523.95
629.914	63525.76
630.269	63525.76
630.623	63509.26
630.978	63519.43
631.332	63525.76
631.687	63525.76
632.041	63525.76
632.396	63525.76
632.75	63525.76
633.104	63525.76
633.459	63525.76
633.813	63525.76
634.167	63525.76
634.521	63525.76
634.875	63525.76
635.229	63525.76
635.583	63525.76
635.937	63525.76
636.291	63525.76
636.645	63523.95
636.999	63513.1
637.352	63525.76
637.706	63508.36
638.06	63525.76
638.413	63518.3
638.767	63489.15
639.121	63525.76
639.474	63433.56
639.828	63452.31
640.181	63428.59
640.534	63483.27
640.888	63431.07
641.241	63366.89
641.594	63326.44
641.947	63424.97
642.301	63332.32
642.654	63393.11
643.007	63332.32
643.36	63342.26
643.713	63355.37
644.066	63444.41
644.419	63182.27
644.771	62997.19
645.124	62809.39
645.477	62779.56
645.83	62735.95
646.182	62665.22
646.535	62642.62
646.888	62695.5
647.24	62622.51
647.593	62704.31
647.945	62561.04
648.298	62570.08
648.65	62474.04
649.002	62398.11
649.355	62347.48
649.707	62301.16
650.059	62295.28
650.411	62580.02
650.763	62743.63
651.115	63023.17
651.467	62899.33
651.819	62920.13
652.171	62846.91
652.523	62779.11
652.875	62859.11
653.227	62721.26
653.578	62849.17
653.93	62847.81
654.282	62717.19
654.633	62718.77
654.985	62712.9
655.337	62693.01
655.688	62682.17
656.039	62774.14
656.391	62547.93
656.742	62564.2
657.094	62614.37
657.445	62673.58
657.796	62660.47
658.147	62549.74
658.498	62545.45
658.849	62688.04
659.2	62538.89
659.551	62470.65
659.902	62603.3
660.253	62513.81
660.604	62596.97
660.955	62473.58
661.306	62565.33
661.656	62452.34
662.007	62482.17
662.358	62535.73
662.708	62439.91
663.059	62478.33
663.409	62371.89
663.76	62483.75
664.11	62468.16
664.461	62547.25
664.811	62413.25
665.161	62445.56
665.511	62351.1
665.862	62367.37
666.212	62392.91
666.562	62385
666.912	62375.96
667.262	62298.45
667.612	62330.54
667.962	62301.61
668.312	62302.06
668.662	62419.35
669.011	62360.59
669.361	62274.27
669.711	62328.5
670.06	62258.67
670.41	62180.48
670.76	62201.27
671.109	62311.1
671.459	62212.35
671.808	62241.05
672.157	62301.38
672.507	62150.43
672.856	62134.61
673.205	62173.03
673.554	62161.95
673.904	62096.42
674.253	62346.58
674.602	62147.72
674.951	61859.81
675.3	61709.08
675.649	62158.34
675.998	62057.78
676.346	62107.72
676.695	62115.4
677.044	62015.52
677.393	62084.89
677.741	62086.02
678.09	62024.56
678.438	61944.56
678.787	61975.07
679.135	62037.21
679.484	61934.39
679.832	61974.84
680.181	61897.33
680.529	61921.96
680.877	61853.94
681.225	61852.81
681.573	62048.51
681.922	61846.26
682.27	61779.14
682.618	61788.63
682.966	61769.65
683.314	61758.8
683.661	61768.97
684.009	61733.72
684.357	61616.66
684.705	61565.81
685.053	61595.19
685.4	61519.94
685.748	61512.25
686.095	61465.47
686.443	61441.07
686.79	61371.24
687.138	61512.03
687.485	61464.57
687.832	61329.43
688.18	61379.15
688.527	61301.41
688.874	61292.82
689.221	61221.19
689.568	61140.74
689.915	61114.07
690.262	61152.94
690.609	61081.3
690.956	60954.53
691.303	60976.9
691.65	60858.03
691.997	60887.41
692.344	60788.88
692.69	60745.04
693.037	60772.84
693.383	60548.89
693.73	60657.59
694.077	60496.01
694.423	60493.07
694.769	60409
695.116	60387.31
695.462	60286.3
695.808	60197.94
696.155	60343.47
696.501	60114.78
696.847	60176.02
697.193	60010.6
697.539	60060.31
697.885	59879.75
698.231	59862.35
698.577	59819.19
698.923	59835.69
699.269	59616.71
699.614	59586.2
699.96	59442.7
700.306	59504.17
700.651	59432.08
700.997	59335.13
701.342	59272.99
701.688	59281.58
702.033	59188.47
702.379	59191.41
702.724	59054.69
703.069	59051.07
703.415	58807.69
703.76	58725.89
704.105	58808.37
704.45	58697.19
704.795	58630.75
705.14	58512.78
705.485	58543.52
705.83	58351.21
706.175	58438.66
706.52	58412
706.865	58284.09
707.209	58287.7
707.554	58230.31
707.899	58150.99
708.243	58054.26
708.588	57972.01
708.932	57904.89
709.277	57916.87
709.621	57816.3
709.966	57715.06
710.31	57692.69
710.654	57565.24
710.998	57598.23
711.342	57606.14
711.687	57469.42
712.031	57432.13
712.375	57327.73
712.719	57299.48
713.063	57234.85
713.407	57354.4
713.75	57209.99
714.094	57119.15
714.438	56994.63
714.782	57094.29
715.125	56962.77
715.469	57041.64
715.812	56827.4
716.156	56826.05
716.499	56764.58
716.843	56828.08
717.186	56665.6
717.53	56847.06
717.873	56805.03
718.216	56667.86
718.559	56502.89
718.902	56444.59
719.246	56437.58
719.589	56345.61
719.932	56154.65
720.275	56217.93
720.617	56226.74
720.96	56152.39
721.303	56250.02
721.646	56291.6
721.989	56031.27
722.331	56135.22
722.674	55962.12
723.016	56010.02
723.359	55908.11
723.701	55949.24
724.044	55787.21
724.386	55688
724.729	55766.42
725.071	55716.47
725.413	55624.5
725.755	55625.4
726.097	55509.92
726.439	55470.15
726.782	55389.25
727.124	55538.62
727.465	55383.83
727.807	55315.35
728.149	55338.86
728.491	55229.93
728.833	55301.79
729.175	55219.31
729.516	55171.63
729.858	55181.12
730.199	55172.98
730.541	55078.07
730.882	54985.19
731.224	55067.45
731.565	54874.69
731.906	54920.79
732.248	54967.11
732.589	54797.17
732.93	54713.11
733.271	54765.76
733.612	54655.03
733.953	54693.67
734.294	54608.71
734.635	54574.36
734.976	54742.71
735.317	54480.35
735.658	54508.6
735.999	54387.69
736.339	54493.68
736.68	54408.48
737.021	54369.39
737.361	54303.85
737.702	54385.43
738.042	54298.88
738.383	54332.55
738.723	54307.24
739.063	54095.05
739.404	54165.33
739.744	54117.64
740.084	54090.75
740.424	54104.76
740.764	54008.95
741.104	54060.02
741.444	53888.95
741.784	53838.56
742.124	53963.75
742.464	53779.8
742.804	53846.47
743.143	53622.06
743.483	53748.16
743.823	53624.32
744.162	53664.1
744.502	53683.53
744.841	53609.64
745.181	53581.16
745.52	53409.41
745.86	53489.64
746.199	53379.13
746.538	53420.71
746.877	53452.35
747.216	53409.64
747.556	53274.05
747.895	53262.07
748.234	53198.57
748.573	53149.08
748.911	53100.04
749.25	53037.45
749.589	52979.14
749.928	52935.53
750.267	53012.36
750.605	52939.37
750.944	52906.83
751.283	52761.52
751.621	52779.83
751.96	52625.25
752.298	52688.76
752.636	52657.12
752.975	52520.62
753.313	52459.16
753.651	52511.81
753.989	52343.23
754.327	52308.2
754.666	52156.79
755.004	52182.55
755.342	52142.1
755.679	52148.43
756.017	51848.1
756.355	51959.28
756.693	51894.65
757.031	51887.2
757.368	51670.25
757.706	51588.22
758.044	51592.97
758.381	51554.32
758.719	51401.78
759.056	51408.56
759.394	51260.77
759.731	51077.27
760.068	51036.37
760.405	51037.73
760.743	50805.64
761.08	50882.25
761.417	50643.61
761.754	50661.01
762.091	50643.61
762.428	50440.23
762.765	50307.35
763.102	50244.53
763.438	50152.1
763.775	49897.87
764.112	49881.6
764.449	49901.48
764.785	49806.12
765.122	49594.83
765.458	49400.93
765.795	49277.32
766.131	49401.61
766.467	49242.29
766.804	49054.5
767.14	48848.18
767.476	48779.71
767.812	48626.94
768.148	48703.1
768.485	48516.44
768.821	48199.16
769.157	48092.49
769.492	48072.61
769.828	47977.24
770.164	47501.1
770.5	47494.54
770.836	47544.03
771.171	47331.38
771.507	47187.66
771.842	46999.41
772.178	47091.39
772.513	46769.82
772.849	46734.11
773.184	46556.26
773.519	46498.18
773.855	46203.73
774.19	46122.37
774.525	45818.43
774.86	45921.02
775.195	45771.65
775.53	45507.7
775.865	45422.51
776.2	45181.61
776.535	44954.04
776.87	44864.55
777.205	44704.56
777.539	44589.99
777.874	44535.98
778.209	44152.94
778.543	44136.66
778.878	43885.6
779.212	43952.94
779.547	43568.32
779.881	43651.25
780.215	43319.28
780.55	43421.43
780.884	43045.39
781.218	43053.3
781.552	43091.95
781.886	42733.09
782.22	42549.36
782.554	42377.39
782.888	42066.21
783.222	41900.56
783.556	41718.65
783.889	41592.78
784.223	41392.78
784.557	41366.12
784.89	41470.07
785.224	41180.58
785.557	40980.14
785.891	40747.15
786.224	40813.14
786.558	40752.8
786.891	40418.34
787.224	40256.99
787.557	40019.03
787.891	40016.77
788.224	39901.3
788.557	39856.1
788.89	39688.65
789.223	39593.28
789.556	39375.89
789.888	39126.85
790.221	39080.53
790.554	38920.08
790.887	38908.33
791.219	38669.69
791.552	38486.64
791.884	38483.71
792.217	38241.23
792.549	38205.07
792.882	37892.53
793.214	37793.33
793.546	37845.08
793.879	37747
794.211	37299.78
794.543	37615.71
794.875	37302.04
795.207	37390.63
795.539	37087.58
795.871	37133.46
796.203	36853.92
796.535	36758.33
796.867	36684.66
797.198	36389.75
797.53	36408.96
797.862	36035.18
798.193	36277.44
798.525	36041.74
798.856	36052.58
799.188	35488.3
799.519	35460.06
799.85	35542.77
800.182	35328.08
800.513	35464.12
800.844	35008.77
801.175	35219.16
801.506	35245.82
801.837	34976.68
802.168	34787.76
802.499	34868.43
802.83	34529.23
803.161	34436.81
803.491	34392.74
803.822	34566.29
804.153	34065.29
804.483	33992.98
804.814	33705.07
805.145	33886.31
805.475	33802.92
805.805	33699.42
806.136	33707.56
806.466	33556.83
806.796	33490.39
807.126	33392.31
807.457	33261.92
807.787	33194.81
808.117	32901.25
808.447	33019.44
808.777	32980.12
809.107	32749.62
809.436	32613.35
809.766	32599.11
810.096	32611.77
810.426	32550.53
810.755	32405.9
811.085	32286.81
811.414	32406.58
811.744	32075.51
812.073	32055.17
812.403	32023.31
812.732	31809.3
813.061	31949.87
813.39	31727.95
813.719	31558.01
814.049	31701.29
814.378	31597.78
814.707	31303.56
815.036	31374.74
815.365	31226.72
815.693	31094.3
816.022	31082.77
816.351	31009.33
816.68	30782.89
817.008	30888.43
817.337	30588.77
817.665	30608.21
817.994	30689.33
818.322	30657.47
818.651	30523.91
818.979	30370.47
819.307	30484.59
819.636	30289.57
819.964	30141.78
820.292	30237.14
820.62	30150.14
820.948	30226.3
821.276	30331.15
821.604	30130.03
821.932	30275.11
822.259	30184.94
822.587	30141.33
822.915	29987.66
823.243	30108.33
823.57	30022.46
823.898	30182.91
824.225	30072.18
824.553	29952.63
824.88	30236.46
825.207	30114.43
825.535	30065.4
825.862	30259.97
826.189	29998.28
826.516	30329.57
826.843	30237.37
827.17	30345.61
827.497	30168.22
827.824	30212.96
828.151	30344.71
828.478	30108.78
828.805	30287.99
829.131	30131.38
829.458	30186.3
829.785	29994.89
830.111	30119.63
830.438	30367.53
830.764	30145.85
831.09	30241.21
831.417	29936.13
831.743	30194.43
832.069	30193.98
832.395	30111.27
832.722	30140.2
833.048	29975
833.374	30138.61
833.7	29920.99
834.026	29994.89
834.351	29846.42
834.677	29931.16
835.003	29979.07
835.329	29861.56
835.654	29964.83
835.98	29711.96
836.306	29915.8
836.631	29688.68
836.956	29939.98
837.282	29859.75
837.607	29642.81
837.932	29641.9
838.258	29497.73
838.583	29431.51
838.908	29550.38
839.233	29625.86
839.558	29419.31
839.883	29349.48
840.208	29172.09
840.533	29295.02
840.858	29249.15
841.182	29176.38
841.507	29138.19
841.832	29041.02
842.156	28961.7
842.481	28968.25
842.805	28759.44
843.13	28696.84
843.454	28725.32
843.778	28725.77
844.103	28524.87
844.427	28469.05
844.751	28735.04
845.075	28403.29
845.399	28441.03
845.723	28137.99
846.047	28215.73
846.371	28001.04
846.695	27843.99
847.019	27928.73
847.343	27624.33
847.666	27587.72
847.99	27448.06
848.313	27341.17
848.637	27330.1
848.96	27165.36
849.284	27213.04
849.607	27054.85
849.931	26912.94
850.254	26844.24
850.577	26643.79
850.9	26512.27
851.223	26523.12
851.546	26371.48
851.869	26259.62
852.192	26327.19
852.515	25960.19
852.838	25878.84
853.161	25825.51
853.483	25698.73
853.806	25691.05
854.129	25733.31
854.451	25607.43
854.774	25446.76
855.096	25337.16
855.419	25230.95
855.741	25220.78
856.063	25066.43
856.385	25009.48
856.708	24908.47
857.03	25078.18
857.352	24876.83
857.674	24797.51
857.996	24570.63
858.318	24436.84
858.64	24549.83
858.961	24504.41
859.283	24274.14
859.605	24224.19
859.926	24269.62
860.248	24244.98
860.57	24110.52
860.891	24128.6
861.212	24050.64
861.534	23990.08
861.855	23856.52
862.176	23919.34
862.498	23887.93
862.819	23887.48
863.14	23691.33
863.461	23572.01
863.782	23612.23
864.103	23660.59
864.424	23570.43
864.745	23578.56
865.065	23445.91
865.386	23297.44
865.707	23372.69
866.027	23347.61
866.348	23271.45
866.668	23195.75
866.989	23153.26
867.309	22995.07
867.63	23016.32
867.95	23188.29
868.27	22894.06
868.59	23031.23
868.91	22899.93
869.23	22881.18
869.55	22654.97
869.87	22826.49
870.19	22694.52
870.51	22663.56
870.83	22674.86
871.15	22641.41
871.469	22610
871.789	22755.08
872.109	22579.04
872.428	22367.07
872.748	22495.65
873.067	22407.52
873.386	22469.89
873.706	22358.25
874.025	22344.47
874.344	22182.44
874.663	22203
874.982	22182.44
875.301	22124.59
875.62	22064.7
875.939	22067.41
876.258	22003.01
876.577	22037.36
876.896	21957.81
877.214	21904.71
877.533	22042.56
877.852	21937.02
878.17	21937.47
878.489	21941.54
878.807	21781.09
879.125	21758.72
879.444	21668.1
879.762	21640.31
880.08	21717.82
880.398	21606.18
880.716	21508.78
881.034	21444.38
881.352	21482.57
881.67	21382.01
881.988	21360.77
882.306	21299.52
882.624	21275.12
882.941	21081.45
883.259	21162.58
883.577	21079.19
883.894	21020.89
884.212	21040.77
884.529	20911.96
884.846	20876.48
885.164	20832.87
885.481	20789.93
885.798	20800.55
886.115	20681.91
886.432	20765.75
886.75	20638.53
887.067	20695.02
887.383	20593.1
887.7	20601.69
888.017	20389.27
888.334	20351.53
888.651	20365.09
888.967	20172.32
889.284	20187.24
889.6	20167.13
889.917	20055.26
890.233	20008.26
890.55	20002.16
890.866	20026.79
891.182	19920.8
891.498	19806.68
891.815	19797.87
892.131	19695.05
892.447	19642.62
892.763	19654.82
893.079	19593.81
893.395	19499.57
893.71	19596.74
894.026	19410.76
894.342	19313.59
894.657	19222.07
894.973	19129.86
895.289	19070.66
895.604	19076.98
895.92	18945.24
896.235	18957.21
896.55	18923.99
896.865	18860.27
897.181	18846.26
897.496	18738.24
897.811	18562.42
898.126	18631.8
898.441	18497.11
898.756	18406.27
899.071	18366.95
899.386	18445.36
899.7	18307.29
900.015	18147.97
900.33	18033.85
900.644	17998.59
900.959	17998.37
901.273	17827.3
901.588	17886.28
901.902	17846.73
902.216	17746.4
902.531	17641.32
902.845	17652.39
903.159	17532.84
903.473	17478.38
903.787	17460.08
904.101	17271.83
904.415	17329.91
904.729	17131.95
905.042	17146.19
905.356	17124.04
905.67	16963.59
905.984	17066.42
906.297	17005.17
906.611	16697.61
906.924	16816.25
907.237	16794.11
907.551	16695.35
907.864	16607.67
908.177	16587.78
908.491	16457.39
908.804	16392.31
909.117	16242.48
909.43	16185.08
909.743	16105.99
910.056	16055.14
910.368	16016.73
910.681	16016.73
910.994	15892.89
911.307	15790.74
911.619	15700.12
911.932	15818.54
912.244	15572.9
912.557	15510.07
912.869	15419.23
913.181	15375.16
913.494	15539.45
913.806	15425.55
914.118	15273.02
914.43	15162.74
914.742	15222.17
915.054	15059.46
915.366	14954.61
915.678	14996.64
915.99	14956.64
916.302	14797.32
916.613	14764.78
916.925	14706.93
917.236	14639.13
917.548	14616.08
917.859	14544
918.171	14517.78
918.482	14343.55
918.794	14333.61
919.105	14273.72
919.416	14131.58
919.727	14178.58
920.038	14199.82
920.349	14045.93
920.66	13951.47
920.971	13942.43
921.282	13941.75
921.593	13777.91
921.903	13742.44
922.214	13657.92
922.525	13539.28
922.835	13618.6
923.146	13491.82
923.456	13410.47
923.767	13341.99
924.077	13316.91
924.387	13248.21
924.697	13139.06
925.008	13069.46
925.318	13084.15
925.628	13094.77
925.938	13047.54
926.248	12795.79
926.558	12852.74
926.867	12751.27
927.177	12745.85
927.487	12713.76
927.796	12567.78
928.106	12631.05
928.416	12482.58
928.725	12545.18
929.034	12553.99
929.344	12448.23
929.653	12379.08
929.962	12297.5
930.271	12283.26
930.581	12169.37
930.89	12141.8
931.199	12030.62
931.508	12007.57
931.817	12014.12
932.125	11985.87
932.434	11862.48
932.743	11792.66
933.051	11693.45
933.36	11646.67
933.669	11615.49
933.977	11529.61
934.286	11492.1
934.594	11523.06
934.902	11403.29
935.21	11337.53
935.519	11335.94
935.827	11206
936.135	11188.6
936.443	11132.33
936.751	11103.41
937.059	11135.27
937.367	10984.32
937.674	11032.45
937.982	10909.74
938.29	10892.11
938.597	10921.27
938.905	10770.99
939.213	10709.07
939.52	10693.25
939.827	10672.01
940.135	10580.03
940.442	10543.2
940.749	10491
941.056	10440.15
941.363	10446.7
941.67	10353.15
941.977	10231.34
942.284	10260.72
942.591	10273.15
942.898	10212.13
943.205	10168.74
943.511	10047.84
943.818	10076.32
944.125	9999.71
944.431	9988.18
944.738	9899.15
945.044	9914.06
945.35	9761.3
945.657	9714.74
945.963	9787.51
946.269	9615.99
946.575	9699.83
946.881	9602.88
947.187	9589.1
947.493	9570.79
947.799	9554.52
948.105	9470.46
948.41	9345.94
948.716	9289.45
949.022	9281.99
949.327	9368.54
949.633	9194.31
949.938	9207.87
950.244	9172.61
950.549	9125.61
950.854	9012.84
951.16	9023.24
951.465	8997.02
951.77	8920.87
952.075	8889.46
952.38	8879.96
952.685	8785.96
952.99	8695.34
953.294	8729.46
953.599	8708.44
953.904	8573.76
954.209	8572.4
954.513	8598.84
954.818	8535.34
955.122	8483.82
955.426	8411.05
955.731	8427.09
956.035	8371.05
956.339	8282.69
956.643	8285.63
956.948	8228
957.252	8223.26
957.556	8218.06
957.86	8157.95
958.163	8124.96
958.467	8084.73
958.771	8034.79
959.075	8070.95
959.378	7996.6
959.682	7929.71
959.985	7902.36
960.289	7856.49
960.592	7735.14
960.896	7788.24
961.199	7712.31
961.502	7690.84
961.805	7701.69
962.108	7601.13
962.411	7584.86
962.714	7508.47
963.017	7496.05
963.32	7519.1
963.623	7388.25
963.926	7513.45
964.228	7396.39
964.531	7379.89
964.833	7374.69
965.136	7288.59
965.438	7254.02
965.741	7240.91
966.043	7211.76
966.345	7133.8
966.648	7158.88
966.95	7085.66
967.252	7057.87
967.554	7076.85
967.856	7011.09
968.158	6943.29
968.46	6939.45
968.761	6897.19
969.063	6878.89
969.365	6831.88
969.666	6788.04
969.968	6740.59
970.269	6716.41
970.571	6741.04
970.872	6671.89
971.174	6641.15
971.475	6625.11
971.776	6606.8
972.077	6567.48
972.378	6571.78
972.679	6515.28
972.98	6480.48
973.281	6430.99
973.582	6430.31
973.883	6390.54
974.183	6309.86
974.484	6333.14
974.785	6334.72
975.085	6274.38
975.386	6250.43
975.686	6188.74
975.986	6173.59
976.287	6112.35
976.587	6110.77
976.887	6065.35
977.187	6066.48
977.487	6056.08
977.787	6016.99
978.087	5989.42
978.387	5980.15
978.687	5927.73
978.987	5863.55
979.286	5873.72
979.586	5815.41
979.885	5782.87
980.185	5818.35
980.484	5749.65
980.784	5733.83
981.083	5718.92
981.382	5701.97
981.682	5669.43
981.981	5645.25
982.28	5579.26
982.579	5575.64
982.878	5598.92
983.177	5536.1
983.475	5515.31
983.774	5473.27
984.073	5448.64
984.372	5455.87
984.67	5390.11
984.969	5374.97
985.267	5361.19
985.566	5329.1
985.864	5271.25
986.162	5301.98
986.461	5242.32
986.759	5218.82
987.057	5182.21
987.355	5142.89
987.653	5122.32
987.951	5148.31
988.249	5105.83
988.547	5131.36
988.844	5069.67
989.142	5052.95
989.44	5024.02
989.737	5012.72
990.035	4924.59
990.332	4987.19
990.63	4911.03
990.927	4916.9
991.224	4826.74
991.521	4852.95
991.819	4819.28
992.116	4803.69
992.413	4809.34
992.71	4722.33
993.006	4692.96
993.303	4702
993.6	4683.01
993.897	4657.7
994.193	4649.34
994.49	4596.69
994.787	4565.05
995.083	4520.3
995.379	4523.92
995.676	4506.29
995.972	4500.64
996.268	4457.93
996.565	4429.01
996.861	4371.83
997.157	4375.68
997.453	4375.22
997.749	4364.83
998.044	4327.54
998.34	4313.76
998.636	4269.46
998.932	4248.9
999.227	4186.08
999.523	4229.69
999.818	4173.87
1000.114	4166.42
1000.409	4128.9
1000.704	4110.15
1001	4116.25
1001.295	4066.98
1001.59	4055.01
1001.885	3981.11
1002.18	4013.2
1002.475	3999.87
1002.77	3931.39
1003.065	3916.03
1003.359	3917.38
1003.654	3927.78
1003.949	3872.19
1004.243	3802.36
1004.538	3790.61
1004.832	3773.21
1005.127	3747.9
1005.421	3745.18
1005.715	3733.21
1006.009	3721.23
1006.304	3684.17
1006.598	3664.51
1006.892	3614.11
1007.186	3626.77
1007.48	3622.7
1007.773	3562.14
1008.067	3534.57
1008.361	3515.59
1008.655	3497.51
1008.948	3469.94
1009.242	3470.39
1009.535	3408.92
1009.829	3406.44
1010.122	3383.16
1010.415	3387.23
1010.708	3327.34
1011.001	3353.56
1011.295	3288.25
1011.588	3328.7
1011.881	3218.42
1012.173	3239.21
1012.466	3239.43
1012.759	3216.38
1013.052	3196.95
1013.344	3226.78
1013.637	3136.39
1013.93	3150.62
1014.222	3129.61
1014.514	3112.88
1014.807	3090.29
1015.099	3049.16
1015.391	3037.41
1015.683	2984.53
1015.976	3008.93
1016.268	2926.9
1016.56	2952.89
1016.851	2935.71
1017.143	2897.3
1017.435	2879.44
1017.727	2839.45
1018.018	2845.32
1018.31	2787.02
1018.602	2808.49
1018.893	2764.19
1019.185	2750.63
1019.476	2739.79
1019.767	2724.65
1020.058	2716.06
1020.35	2678.77
1020.641	2667.7
1020.932	2664.08
1021.223	2625.44
1021.514	2647.81
1021.804	2583.63
1022.095	2565.55
1022.386	2521.71
1022.677	2530.07
1022.967	2498.66
1023.258	2507.25
1023.548	2465.9
1023.839	2463.64
1024.129	2473.35
1024.419	2426.35
1024.709	2427.93
1025	2403.52
1025.29	2370.53
1025.58	2347.48
1025.87	2366.69
1026.16	2314.49
1026.449	2330.31
1026.739	2252.79
1027.029	2299.8
1027.319	2235.17
1027.608	2237.43
1027.898	2227.94
1028.187	2206.69
1028.477	2168.05
1028.766	2198.11
1029.055	2193.36
1029.344	2144.32
1029.634	2097.32
1029.923	2101.84
1030.212	2100.26
1030.501	2103.65
1030.79	2052.35
1031.078	2029.07
1031.367	2019.81
1031.656	1998.11
1031.945	1993.37
1032.233	1959.24
1032.522	1965.8
1032.81	1951.78
1033.099	1912.46
1033.387	1944.78
1033.675	1921.73
1033.963	1907.04
1034.251	1892.58
1034.54	1893.03
1034.828	1875.18
1035.116	1847.38
1035.403	1824.56
1035.691	1825.91
1035.979	1831.11
1036.267	1773.48
1036.554	1769.87
1036.842	1793.14
1037.129	1709.76
1037.417	1762.64
1037.704	1698.01
1037.992	1724.9
1038.279	1703.2
1038.566	1679.25
1038.853	1679.25
1039.14	1679.25
