Data from 485_FLMS001491_008.txt Node
Date: Thu Apr 19 16:32:23 BST 2018
User: hsy
Spectrometer: FLMS00149
Trigger mode: 0
Integration Time (sec): 1.000000E-2
Scans to average: 10
Electric dark correction enabled: true
Nonlinearity correction enabled: false
Boxcar width: 0
XAxis mode: Wavelengths
Number of Pixels in Spectrum: 2048
>>>>>Begin Spectral Data<<<<<
341.393	-4.01
341.776	-4.01
342.16	-4.01
342.543	-66.61
342.927	-71.13
343.31	-59.83
343.693	-72.71
344.077	-65.93
344.46	-61.64
344.843	-56.89
345.226	-30.68
345.61	-38.59
345.993	-0.85
346.376	8.64
346.759	10
347.142	14.07
347.525	42.77
347.908	66.5
348.291	57.46
348.674	102.65
349.057	85.03
349.44	118.02
349.823	144.91
350.206	162.54
350.588	242.31
350.971	252.48
351.354	267.85
351.737	289.77
352.119	313.95
352.502	305.36
352.884	331.35
353.267	339.03
353.65	350.33
354.032	361.63
354.414	339.93
354.797	364.79
355.179	373.15
355.562	358.01
355.944	354.62
356.326	380.16
356.709	381.52
357.091	385.81
357.473	391.91
357.855	385.13
358.238	391.68
358.62	380.39
359.002	381.97
359.384	391.46
359.766	372.93
360.148	401.85
360.53	405.92
360.912	404.57
361.294	396.43
361.676	386.71
362.057	378.58
362.439	394.17
362.821	380.61
363.203	385.58
363.584	390.78
363.966	383.32
364.348	398.46
364.729	383.55
365.111	416.32
365.493	391.46
365.874	383.78
366.256	386.04
366.637	371.12
367.019	374.96
367.4	371.57
367.781	371.35
368.163	373.61
368.544	362.53
368.925	374.74
369.306	394.62
369.688	387.84
370.069	372.7
370.45	387.62
370.831	388.75
371.212	396.66
371.593	393.04
371.974	391.68
372.355	382.87
372.736	394.85
373.117	410.44
373.498	361.63
373.879	379.03
374.26	400.27
374.641	398.69
375.021	391.46
375.402	410.22
375.783	411.8
376.163	404.34
376.544	428.52
376.925	413.15
377.305	405.7
377.686	400.27
378.066	416.32
378.447	431.46
378.827	415.19
379.208	414.51
379.588	412.7
379.968	426.71
380.349	442.3
380.729	435.98
381.109	421.29
381.489	438.24
381.87	418.58
382.25	438.92
382.63	430.55
383.01	436.2
383.39	474.39
383.77	459.71
384.15	432.59
384.53	435.53
384.91	471.68
385.29	465.58
385.67	470.1
386.049	464
386.429	476.43
386.809	461.97
387.189	485.47
387.568	477.78
387.948	481.63
388.328	495.64
388.707	472.13
389.087	486.15
389.466	488.63
389.846	478.24
390.225	508.29
390.605	479.59
390.984	505.81
391.363	502.64
391.743	504.22
392.122	514.17
392.501	535.64
392.881	515.75
393.26	529.53
393.639	532.02
394.018	544.9
394.397	539.25
394.776	529.31
395.155	522.08
395.534	526.37
395.913	515.3
396.292	556.65
396.671	538.12
397.05	555.75
397.429	571.34
397.808	557.56
398.186	542.64
398.565	556.88
398.944	579.93
399.323	588.52
399.701	574.73
400.08	543.55
400.458	599.14
400.837	584.9
401.215	589.19
401.594	574.96
401.972	606.14
402.351	591
402.729	602.3
403.107	612.92
403.486	629.42
403.864	613.6
404.242	628.29
404.62	617.67
404.999	641.85
405.377	642.07
405.755	661.96
406.133	619.25
406.511	654.05
406.889	671.23
407.267	662.41
407.645	693.15
408.023	701.73
408.401	695.41
408.779	699.02
409.156	709.87
409.534	720.94
409.912	720.26
410.29	729.53
410.667	738.57
411.045	730.21
411.422	736.31
411.8	757.1
412.178	758
412.555	761.17
412.933	785.12
413.31	775.86
413.687	798.45
414.065	777.89
414.442	800.94
414.819	814.27
415.197	805.23
415.574	821.5
415.951	824.22
416.328	828.74
416.705	831.67
417.082	834.84
417.46	833.93
417.837	860.82
418.214	861.5
418.591	889.3
418.967	875.06
419.344	890.43
419.721	919.35
420.098	868.28
420.475	896.53
420.852	926.13
421.228	908.96
421.605	929.07
421.982	937.66
422.358	927.94
422.735	943.08
423.111	938.34
423.488	952.12
423.864	967.49
424.241	997.54
424.617	956.42
424.994	952.12
425.37	967.04
425.746	1021.72
426.123	1028.05
426.499	1001.16
426.875	1005
427.251	1031.67
427.627	1060.37
428.003	1060.14
428.379	1076.64
428.756	1106.24
429.132	1084.32
429.507	1114.6
429.883	1107.82
430.259	1140.14
430.635	1176.97
431.011	1131.78
431.387	1172.68
431.763	1179.01
432.138	1190.53
432.514	1201.38
432.89	1249.06
433.265	1261.94
433.641	1255.39
434.016	1257.2
434.392	1302.62
434.767	1295.62
435.143	1312.11
435.518	1322.96
435.894	1349.17
436.269	1351.43
436.644	1373.35
437.02	1351.66
437.395	1360.25
437.77	1375.84
438.145	1404.09
438.52	1411.32
438.895	1422.39
439.271	1402.05
439.646	1452.22
440.021	1466.46
440.395	1473.01
440.77	1451.54
441.145	1491.09
441.52	1512.79
441.895	1504.42
442.27	1511.43
442.645	1500.58
443.019	1504.65
443.394	1551.88
443.769	1565.67
444.143	1538.32
444.518	1581.94
444.892	1550.52
445.267	1565.44
445.641	1567.7
446.016	1613.35
446.39	1591.88
446.764	1619.45
447.139	1601.82
447.513	1647.24
447.887	1623.74
448.262	1643.18
448.636	1686.79
449.01	1654.48
449.384	1690.63
449.758	1684.53
450.132	1705.77
450.506	1748.26
450.88	1739.22
451.254	1743.97
451.628	1766.56
452.002	1786.22
452.376	1817.18
452.75	1843.4
453.123	1842.04
453.497	1878.88
453.871	1859.67
454.244	1931.31
454.618	1946.9
454.992	1954.13
455.365	1978.08
455.739	2002.94
456.112	1998.87
456.486	2047.69
456.859	2037.29
457.232	2076.84
457.606	2085.43
457.979	2161.36
458.352	2172.88
458.725	2163.39
459.099	2182.15
459.472	2225.31
459.845	2278.64
460.218	2251.75
460.591	2266.66
460.964	2314.12
461.337	2367.68
461.71	2376.72
462.083	2419.88
462.456	2440.44
462.829	2436.38
463.201	2456.49
463.574	2452.65
463.947	2494.45
464.32	2512.08
464.692	2565.41
465.065	2605.19
465.438	2614
465.81	2648.8
466.183	2645.64
466.555	2720.21
466.928	2732.41
467.3	2762.92
467.672	2787.33
468.045	2814.45
468.417	2841.11
468.789	2839.53
469.161	2888.79
469.534	2983.71
469.906	3001.79
470.278	2997.04
470.65	3031.39
471.022	3076.59
471.394	3096.47
471.766	3157.04
472.138	3183.02
472.51	3275.45
472.882	3284.72
473.253	3330.59
473.625	3363.81
473.997	3400.87
474.369	3467.76
474.74	3490.59
475.112	3580.53
475.484	3600.64
475.855	3673.41
476.227	3700.98
476.598	3795.66
476.97	3838.37
477.341	3856.9
477.713	3974.87
478.084	4006.73
478.455	4098.25
478.827	4118.59
479.198	4202.21
479.569	4206.5
479.94	4391.35
480.311	4403.78
480.682	4510.67
481.053	4570.56
481.424	4629.31
481.795	4698.46
482.166	4733.94
482.537	4878.35
482.908	4916.31
483.279	4996.31
483.65	5133.03
484.021	5205.12
484.391	5291.44
484.762	5323.53
485.133	5426.35
485.503	5398.78
485.874	5589.29
486.244	5640.81
486.615	5743.63
486.985	5846.68
487.356	5970.29
487.726	6004.19
488.097	6132.55
488.467	6161.25
488.837	6292.32
489.207	6374.8
489.578	6521.01
489.948	6574.57
490.318	6669.94
490.688	6749.26
491.058	6842.36
491.428	6904.51
491.798	7001.68
492.168	7187.66
492.538	7176.36
492.908	7236.25
493.278	7345.17
493.648	7417.49
494.017	7541.55
494.387	7606.41
494.757	7664.94
495.126	7771.83
495.496	7876.46
495.866	7973.41
496.235	8005.5
496.605	8055.66
496.974	8150.58
497.344	8207.3
497.713	8262.89
498.082	8367.07
498.452	8375.43
498.821	8511.47
499.19	8508.53
499.559	8588.31
499.928	8709.21
500.298	8717.57
500.667	8870.56
501.036	8893.83
501.405	8969.54
501.774	9016.09
502.143	9034.17
502.512	9108.07
502.88	9246.59
503.249	9193.26
503.618	9277.78
503.987	9282.3
504.356	9409.07
504.724	9488.39
505.093	9527.94
505.462	9559.35
505.83	9582.4
506.199	9708.28
506.567	9849.29
506.936	9802.28
507.304	9891.32
507.672	9943.75
508.041	9994.6
508.409	10063.29
508.777	10089.06
509.145	10260.8
509.514	10167.25
509.882	10289.5
510.25	10320.46
510.618	10431.19
510.986	10456.73
511.354	10504.64
511.722	10658.08
512.09	10703.96
512.458	10769.26
512.826	10849.49
513.193	10899.88
513.561	10953.67
513.929	11072.31
514.297	11118.41
514.664	11230.27
515.032	11284.96
515.4	11317.27
515.767	11392.3
516.135	11361.79
516.502	11435.91
516.869	11574.67
517.237	11615.12
517.604	11611.95
517.972	11730.14
518.339	11837.94
518.706	11948.22
519.073	11950.48
519.44	12081.77
519.808	12267.3
520.175	12230.7
520.542	12304.59
520.909	12434.76
521.276	12474.98
521.643	12723.34
522.009	12759.04
522.376	12839.27
522.743	12971.92
523.11	13113.16
523.477	13267.05
523.843	13224.79
524.21	13365.58
524.577	13488.29
524.943	13595.41
525.31	13644.67
525.676	13791.11
526.043	13961.27
526.409	13918.33
526.776	14194.94
527.142	14170.31
527.508	14287.36
527.874	14494.14
528.241	14598.54
528.607	14628.82
528.973	14789.95
529.339	14800.35
529.705	15032.66
530.071	15183.16
530.437	15229.49
530.803	15285.98
531.169	15454.34
531.535	15427.67
531.901	15543.83
532.267	15641.91
532.632	15824.05
532.998	15883.48
533.364	15920.77
533.73	16001.9
534.095	16116.92
534.461	16234.88
534.826	16295.9
535.192	16407.99
535.557	16525.5
535.923	16474.65
536.288	16545.38
536.653	16755.55
537.019	16752.84
537.384	16730.69
537.749	16912.38
538.114	16918.48
538.479	17008.65
538.845	17125.26
539.21	17163.9
539.575	17229.66
539.94	17334.06
540.305	17420.16
540.67	17459.03
541.034	17512.14
541.399	17595.98
541.764	17703.77
542.129	17712.36
542.494	17826.03
542.858	17894.5
543.223	17821.96
543.587	17991
543.952	17981.28
544.316	18091.33
544.681	18041.16
545.045	18218.56
545.41	18207.94
545.774	18245
546.138	18375.84
546.503	18388.73
546.867	18466.01
547.231	18530.19
547.595	18605.67
547.959	18696.51
548.324	18722.28
548.688	18791.65
549.052	18934.7
549.416	18905.32
549.779	19001.82
550.143	18951.42
550.507	19149.84
550.871	19250.62
551.235	19131.53
551.599	19353.22
551.962	19400.68
552.326	19546.66
552.689	19506.44
553.053	19446.32
553.417	19585.08
553.78	19741.46
554.143	19785.3
554.507	19918.18
554.87	19970.15
555.234	20129.02
555.597	20103.03
555.96	20160.88
556.323	20292.86
556.686	20353.65
557.05	20452.4
557.413	20594.32
557.776	20634.99
558.139	20828.44
558.502	20800.87
558.865	20850.36
559.228	21178.03
559.59	21131.25
559.953	21200.4
560.316	21423.9
560.679	21443.56
561.041	21613.95
561.404	21710.67
561.767	21913.15
562.129	21820.95
562.492	22057.78
562.854	22012.59
563.217	22072.92
563.579	22243.09
563.941	22500.26
564.304	22641.95
564.666	22829.51
565.028	22836.52
565.39	23069.28
565.753	23105.21
566.115	23212.1
566.477	23230.18
566.839	23313.12
567.201	23780.9
567.563	23632.43
567.925	23941.8
568.287	24072.64
568.648	24056.37
569.01	24200.55
569.372	24471.96
569.734	24472.63
570.095	24608.22
570.457	24848.22
570.819	24906.07
571.18	24963.24
571.542	25282.56
571.903	25250.47
572.265	25453.85
572.626	25685.48
572.987	25629.67
573.349	25753.28
573.71	25943.33
574.071	26217.22
574.432	26278.24
574.794	26412.47
575.155	26516.65
575.516	26555.74
575.877	26734.72
576.238	26807.71
576.599	27101.72
576.96	27180.58
577.32	27242.5
577.681	27252.67
578.042	27437.98
578.403	27558.43
578.763	27646.79
579.124	27903.28
579.485	28136.72
579.845	28217.17
580.206	28274.79
580.566	28361.12
580.927	28495.58
581.287	28632.75
581.648	28804.5
582.008	29032.06
582.368	29208.1
582.728	29197.48
583.089	29400.19
583.449	29628.66
583.809	29750.69
584.169	29956.78
584.529	30120.39
584.889	30579.37
585.249	30494.62
585.609	30682.64
585.969	31146.58
586.329	31214.15
586.688	31780.46
587.048	31944.75
587.408	32243.95
587.768	32490.5
588.127	32844.84
588.487	33105.4
588.846	33696.35
589.206	33813.86
589.565	34126.16
589.925	34952.81
590.284	35088.4
590.643	35486.36
591.003	35940.13
591.362	36695.81
591.721	36876.83
592.08	37263.94
592.44	37946.18
592.799	38340.07
593.158	38830.22
593.517	39217.56
593.876	39716.53
594.235	40219.56
594.593	40728.03
594.952	41357.16
595.311	41679.19
595.67	42223.58
596.029	42904.47
596.387	43379.25
596.746	44028.73
597.104	44226.24
597.463	44673.46
597.822	45550.5
598.18	45636.37
598.538	46282.91
598.897	46975.32
599.255	47052.6
599.613	48046.93
599.972	48156.53
600.33	48726.68
600.688	48869.05
601.046	49398.76
601.404	49978.86
601.762	50300.88
602.12	50733.64
602.478	51088.43
602.836	51529.55
603.194	51634.63
603.552	52093.6
603.91	52343.31
604.268	52722.51
604.625	53002.96
604.983	53485.88
605.341	53550.51
605.698	53985.98
606.056	54400.43
606.413	54457.83
606.771	54915
607.128	55099.4
607.485	55257.36
607.843	55584.81
608.2	55873.39
608.557	56201.52
608.914	56345.47
609.272	56608.06
609.629	56918.33
609.986	57137.76
610.343	57278.55
610.7	57622.72
611.057	57665.21
611.414	57812.32
611.771	58164.18
612.127	58399.88
612.484	58532.75
612.841	58716.25
613.198	58782.24
613.554	58862.24
613.911	59206.41
614.267	59327.08
614.624	59401.66
614.98	59641.2
615.337	59924.36
615.693	59954.19
616.05	60075.54
616.406	60299.49
616.762	60316.21
617.118	60453.83
617.475	60553.04
617.831	60766.82
618.187	60797.33
618.543	60925.23
618.899	61206.58
619.255	61306.92
619.611	61287.03
619.967	61454.49
620.323	61583.97
620.678	61644.76
621.034	61611.09
621.39	61648.61
621.746	61734.7
622.101	62084.07
622.457	61932.21
622.812	62098.76
623.168	62265.31
623.523	62228.7
623.879	62335.59
624.234	62292.2
624.589	62436.83
624.945	62526.77
625.3	62516.83
625.655	62591.41
626.01	62604.51
626.365	62674.34
626.72	62663.72
627.075	62691.06
627.43	62777.39
627.785	62778.74
628.14	62825.98
628.495	62844.28
628.85	62919.76
629.205	62880.66
629.559	63019.42
629.914	62986.2
630.269	63007.89
630.623	62863.71
630.978	62901
631.332	63074.56
631.687	63060.09
632.041	63038.62
632.396	63064.39
632.75	63060.09
633.104	63132.41
633.459	63013.54
633.813	63065.06
634.167	63000.21
634.521	63027.55
634.875	63085.18
635.229	63032.07
635.583	62894.45
635.937	62961.34
636.291	63010.38
636.645	63023.03
636.999	62914.56
637.352	62980.77
637.706	62858.06
638.06	63009.7
638.413	62927.44
638.767	62854.67
639.121	62894.45
639.474	62807.67
639.828	62821.23
640.181	62823.94
640.534	62867.56
640.888	62744.85
641.241	62647.22
641.594	62650.16
641.947	62838.86
642.301	62719.76
642.654	62762.47
643.007	62606.09
643.36	62750.27
643.713	62618.97
644.066	62756.37
644.419	62600.22
644.771	62329.49
645.124	62201.13
645.477	62167.91
645.83	62091.76
646.182	62027.8
646.535	61981.03
646.888	62032.32
647.24	62011.99
647.593	62047.24
647.945	61955.94
648.298	61855.83
648.65	61849.28
649.002	61706.91
649.355	61656.74
649.707	61612.9
650.059	61632.11
650.411	61845.44
650.763	62056.73
651.115	62370.62
651.467	62299.21
651.819	62278.42
652.171	62154.81
652.523	62125.65
652.875	62144.64
653.227	62073.23
653.578	62260.11
653.93	62092.21
654.282	61999.56
654.633	62037.07
654.985	62063.06
655.337	62049.27
655.688	62022.83
656.039	62084.53
656.391	61882.27
656.742	61897.64
657.094	61950.29
657.445	61968.6
657.796	62004.98
658.147	61830.07
658.498	61898.54
658.849	61941.03
659.2	61874.14
659.551	61779.9
659.902	61967.01
660.253	61785.55
660.604	61879.56
660.955	61759.56
661.306	61941.25
661.656	61770.64
662.007	61737.19
662.358	61842.27
662.708	61820.58
663.059	61719.11
663.409	61627.14
663.76	61764.53
664.11	61755.49
664.461	61779.68
664.811	61762.95
665.161	61733.12
665.511	61689.51
665.862	61730.86
666.212	61740.81
666.562	61704.87
666.912	61718.43
667.262	61588.27
667.612	61666.91
667.962	61680.24
668.312	61638.44
668.662	61769.28
669.011	61727.02
669.361	61631.88
669.711	61669.62
670.06	61621.04
670.41	61564.77
670.76	61532.9
671.109	61591.21
671.459	61588.95
671.808	61523.18
672.157	61606.35
672.507	61440.02
672.856	61416.07
673.205	61448.16
673.554	61520.25
673.904	61415.39
674.253	61711.43
674.602	61469.4
674.951	61169.75
675.3	61056.98
675.649	61495.61
675.998	61463.3
676.346	61481.6
676.695	61479.34
677.044	61344.66
677.393	61414.26
677.741	61397.54
678.09	61350.08
678.438	61304.43
678.787	61372.91
679.135	61313.02
679.484	61230.31
679.832	61308.95
680.181	61220.82
680.529	61297.43
680.877	61234.15
681.225	61178.79
681.573	61361.83
681.922	61145.79
682.27	61120.48
682.618	61124.1
682.966	61013.59
683.314	61128.84
683.661	61064.44
684.009	60988.96
684.357	60943.09
684.705	60901.73
685.053	60905.12
685.4	60822.41
685.748	60760.49
686.095	60840.04
686.443	60669.87
686.79	60608.18
687.138	60788.51
687.485	60684.79
687.832	60576.09
688.18	60611.57
688.527	60507.62
688.874	60540.84
689.221	60560.5
689.568	60419.03
689.915	60356.89
690.262	60449.09
690.609	60329.09
690.956	60229.21
691.303	60263.33
691.65	60156.44
691.997	60118.7
692.344	59951.47
692.69	59934.07
693.037	60043.68
693.383	59830.57
693.73	59858.37
694.077	59743.8
694.423	59732.72
694.769	59678.49
695.116	59686.62
695.462	59550.13
695.808	59534.99
696.155	59565.95
696.501	59351.72
696.847	59394.2
697.193	59255
697.539	59387.42
697.885	59186.52
698.231	59078.73
698.577	59094.32
698.923	59010.03
699.269	58900.2
699.614	58860.66
699.96	58744.27
700.306	58775.46
700.651	58651.17
700.997	58667.67
701.342	58506.77
701.688	58499.08
702.033	58405.53
702.379	58408.01
702.724	58292.99
703.069	58369.6
703.415	58130.28
703.76	58037.85
704.105	58088.02
704.45	58038.53
704.795	57922.6
705.14	57843.96
705.485	57797.18
705.83	57696.17
706.175	57734.81
706.52	57661.14
706.865	57550.63
707.209	57472.44
707.554	57527.58
707.899	57495.49
708.243	57350.64
708.588	57245.33
708.932	57170.76
709.277	57166.24
709.621	57136.18
709.966	56965.56
710.31	57002.85
710.654	56823.2
710.998	56884.21
711.342	56894.15
711.687	56703.65
712.031	56751.56
712.375	56582.98
712.719	56562.64
713.063	56521.96
713.407	56685.57
713.75	56427.27
714.094	56454.17
714.438	56267.5
714.782	56310.21
715.125	56124.91
715.469	56352.93
715.812	56067.96
716.156	56025.02
716.499	55984.35
716.843	56108.86
717.186	55838.36
717.53	56085.81
717.873	55976.21
718.216	55851.92
718.559	55753.17
718.902	55564.92
719.246	55597.46
719.589	55554.98
719.932	55399.05
720.275	55528.09
720.617	55504.13
720.96	55336.91
721.303	55487.64
721.646	55490.12
721.989	55232.5
722.331	55298.04
722.674	55270.24
723.016	55185.95
723.359	55096.01
723.701	55109.57
724.044	55000.87
724.386	54877.03
724.729	55012.4
725.071	54926.3
725.413	54877.48
725.755	54852.85
726.097	54713.19
726.439	54711.39
726.782	54631.84
727.124	54693.08
727.465	54666.64
727.807	54500.54
728.149	54599.98
728.491	54348.23
728.833	54484.27
729.175	54429.36
729.516	54367.44
729.858	54373.09
730.199	54293.54
730.541	54318.63
730.882	54155.02
731.224	54244.28
731.565	54139.88
731.906	54075.7
732.248	54153.66
732.589	53980.56
732.93	53943.04
733.271	53945.3
733.612	53792.77
733.953	53988.92
734.294	53717.06
734.635	53726.78
734.976	53826.44
735.317	53661.7
735.658	53647.46
735.999	53580.34
736.339	53606.78
736.68	53569.95
737.021	53552.77
737.361	53351.42
737.702	53578.53
738.042	53373.57
738.383	53448.37
738.723	53505.99
739.063	53311.42
739.404	53409.95
739.744	53334.47
740.084	53202.5
740.424	53317.75
740.764	53110.52
741.104	53249.96
741.444	53041.15
741.784	53023.3
742.124	53104.2
742.464	52920.92
742.804	52993.69
743.143	52874.82
743.483	52920.92
743.823	52728.39
744.162	52738.78
744.502	52821.27
744.841	52654.94
745.181	52754.38
745.52	52591.89
745.86	52572.46
746.199	52495.63
746.538	52665.56
746.877	52539.69
747.216	52562.06
747.556	52440.26
747.895	52405.46
748.234	52327.95
748.573	52291.11
748.911	52193.49
749.25	52237.78
749.589	52067.16
749.928	52150.55
750.267	52032.36
750.605	52009.31
750.944	51925.92
751.283	51792.14
751.621	51811.12
751.96	51651.81
752.298	51737.68
752.636	51658.13
752.975	51561.41
753.313	51486.84
753.651	51579.94
753.989	51370.01
754.327	51373.39
754.666	51182.44
755.004	51158.71
755.342	51149.9
755.679	51197.81
756.017	50900.87
756.355	51050.92
756.693	50887.53
757.031	50913.29
757.368	50765.28
757.706	50694.99
758.044	50622.45
758.381	50606.18
758.719	50490.25
759.056	50462.68
759.394	50298.17
759.731	50005.3
760.068	50183.37
760.405	50073.32
760.743	49817.96
761.08	49840.55
761.417	49733.21
761.754	49661.58
762.091	49486.89
762.428	49396.95
762.765	49263.17
763.102	49255.26
763.438	49043.06
763.775	48914.02
764.112	48904.76
764.449	48869.96
764.785	48811.88
765.122	48448.95
765.458	48372.34
765.795	48280.82
766.131	48175.06
766.467	48163.54
766.804	47979.59
767.14	47763.77
767.476	47638.58
767.812	47531.69
768.148	47520.39
768.485	47383.9
768.821	47159.27
769.157	46928.54
769.492	46972.15
769.828	46867.07
770.164	46523.35
770.5	46451.04
770.836	46428.67
771.171	46352.06
771.507	46085.4
771.842	45967.21
772.178	45835.69
772.513	45720.21
772.849	45413.1
773.184	45439.31
773.519	45281.13
773.855	45048.36
774.19	45096.05
774.525	44966.11
774.86	44685.21
775.195	44601.37
775.53	44327.25
775.865	44293.81
776.2	44075.28
776.535	43711.68
776.87	43639.59
777.205	43365.47
777.539	43408.86
777.874	43393.72
778.209	42972.03
778.543	43202.99
778.878	42920.96
779.212	42757.8
779.547	42532.95
779.881	42482.1
780.215	42162.56
780.55	42134.99
780.884	41913.76
781.218	41800.09
781.552	41904.72
781.886	41686.64
782.22	41215.02
782.554	41146.77
782.888	40757.63
783.222	40786.33
783.556	40644.41
783.889	40399.45
784.223	40275.38
784.557	40162.39
784.89	40401.71
785.224	40052.79
785.557	39705
785.891	39775.96
786.224	39675.85
786.558	39619.81
786.891	39272.47
787.224	38980.27
787.557	38972.59
787.891	38889.66
788.224	38640.17
788.557	38757.46
788.89	38555.65
789.223	38491.02
789.556	38255.1
789.888	38120.64
790.221	37952.73
790.554	37716.35
790.887	37750.25
791.219	37530.14
791.552	37467.77
791.884	37315.91
792.217	37206.76
792.549	37108.91
792.882	36883.61
793.214	36678.19
793.546	36737.17
793.879	36558.42
794.211	36241.82
794.543	36433
794.875	36304.19
795.207	36398.65
795.539	36016.51
795.871	36236.84
796.203	35967.92
796.535	35545.34
796.867	35655.39
797.198	35320.94
797.53	35368.17
797.862	35089.76
798.193	35133.82
798.525	35022.41
798.856	35096.99
799.188	34613.84
799.519	34624.91
799.85	34358.02
800.182	34371.36
800.513	34469.43
800.844	34003
801.175	34332.49
801.506	34239.83
801.837	33924.14
802.168	33976.79
802.499	34082.78
802.83	33694.76
803.161	33510.14
803.491	33412.51
803.822	33617.93
804.153	33295.68
804.483	33088.23
804.814	32899.98
805.145	32917.84
805.475	32982.24
805.805	32905.86
806.136	32889.14
806.466	32604.62
806.796	32631.29
807.126	32494.57
807.457	32359.66
807.787	32321.01
808.117	32296.38
808.447	31982.94
808.777	32168.25
809.107	31923.06
809.436	31714.02
809.766	31687.13
810.096	31796.51
810.426	31405.11
810.755	31611.43
811.085	31446.91
811.414	31329.63
811.744	31254.15
812.073	31199.46
812.403	31056.42
812.732	30959.47
813.061	31085.79
813.39	30792.24
813.719	30862.75
814.049	30952.24
814.378	30769.42
814.707	30458.01
815.036	30499.37
815.365	30451.46
815.693	30330.33
816.022	30195.87
816.351	30126.72
816.68	29949.1
817.008	30070
817.337	29825.71
817.665	29875.66
817.994	29847.63
818.322	29820.06
818.651	29751.14
818.979	29514.99
819.307	29623.91
819.636	29557.47
819.964	29461.43
820.292	29543.46
820.62	29353.63
820.948	29371.49
821.276	29529
821.604	29358.61
821.932	29433.63
822.259	29420.3
822.587	29362.22
822.915	29181.44
823.243	29384.82
823.57	29222.11
823.898	29477.47
824.225	29198.16
824.553	29159.06
824.88	29257.82
825.207	29330.81
825.535	29231.15
825.862	29355.89
826.189	29320.87
826.516	29429.34
826.843	29330.58
827.17	29393.41
827.497	29440.64
827.824	29376.91
828.151	29372.84
828.478	29251.26
828.805	29476.8
829.131	29183.7
829.458	29411.03
829.785	29178.5
830.111	29231.38
830.438	29443.58
830.764	29328.55
831.09	29439.28
831.417	29232.73
831.743	29327.42
832.069	29275.67
832.395	29120.42
832.722	29282.68
833.048	29117.03
833.374	29288.78
833.7	29010.14
834.026	29248.1
834.351	29126.75
834.677	29232.73
835.003	29095.11
835.329	28976.24
835.654	29074.55
835.98	28877.04
836.306	29044.04
836.631	28768.34
836.956	29035.23
837.282	28961.78
837.607	28797.04
837.932	28798.85
838.258	28746.87
838.583	28662.58
838.908	28599.3
839.233	28614.45
839.558	28488.12
839.883	28458.97
840.208	28334.68
840.533	28461.46
840.858	28411.51
841.182	28398.41
841.507	28314.57
841.832	28220.11
842.156	28234.57
842.481	28111.86
842.805	28164.29
843.13	28029.38
843.454	27963.62
843.778	27845.43
844.103	27839.78
844.427	27734.47
844.751	27793
845.075	27761.59
845.399	27544.42
845.723	27436.85
846.047	27484.31
846.371	27345.33
846.695	27134.71
847.019	27132.68
847.343	27029.85
847.666	26919.57
847.99	26667.38
848.313	26611.33
848.637	26662.41
848.96	26454.28
849.284	26442.07
849.607	26277.11
849.931	26149.65
850.254	26082.53
850.577	25923.89
850.9	25687.29
851.223	25738.81
851.546	25630.12
851.869	25513.06
852.192	25658.14
852.515	25321.65
852.838	25120.3
853.161	25293.18
853.483	25092.05
853.806	25100.19
854.129	24881.21
854.451	24971.15
854.774	24778.61
855.096	24638.73
855.419	24537.72
855.741	24509.69
856.063	24344.95
856.385	24304.28
856.708	24206.2
857.03	24122.36
857.352	24239.19
857.674	24134.79
857.996	23931.18
858.318	23747.91
858.64	23940.22
858.961	23866.32
859.283	23691.86
859.605	23502.49
859.926	23632.43
860.248	23583.39
860.57	23441.7
860.891	23438.76
861.212	23375.94
861.534	23324.87
861.855	23195.6
862.176	23219.56
862.498	23142.05
862.819	23196.73
863.14	23091.88
863.461	23027.93
863.782	22928.95
864.103	22999
864.424	22868.61
864.745	22952.67
865.065	22712.23
865.386	22741.15
865.707	22716.07
866.027	22676.75
866.348	22699.12
866.668	22570.99
866.989	22538.45
867.309	22408.51
867.63	22458.9
867.95	22500.93
868.27	22359.69
868.59	22341.39
868.91	22206.48
869.23	22278.34
869.55	22166.03
869.87	22136.65
870.19	22140.27
870.51	22060.72
870.83	22110.44
871.15	22027.27
871.469	21830.22
871.789	22025.92
872.109	21991.57
872.428	21861.18
872.748	21853.72
873.067	21747.51
873.386	21792.93
873.706	21750.45
874.025	21725.59
874.344	21532.15
874.663	21620.73
874.982	21593.16
875.301	21630.22
875.62	21463.45
875.939	21392.71
876.258	21335.09
876.577	21302.1
876.896	21286.5
877.214	21287.86
877.533	21298.48
877.852	21321.98
878.17	21170.12
878.489	21250.57
878.807	21100.52
879.125	21048.09
879.444	21109.33
879.762	21060.75
880.08	21037.7
880.398	20979.39
880.716	20955.66
881.034	20899.17
881.352	20893.52
881.67	20742.56
881.988	20689.23
882.306	20700.53
882.624	20714.09
882.941	20604.49
883.259	20461.44
883.577	20532.4
883.894	20453.3
884.212	20478.84
884.529	20294.66
884.846	20424.6
885.164	20242.91
885.481	20229.58
885.798	20248.56
886.115	20004.95
886.432	20138.96
886.75	19967.44
887.067	20019.42
887.383	19884.51
887.7	19864.62
888.017	19746.2
888.334	19829.59
888.651	19821.23
888.967	19728.58
889.284	19637.96
889.6	19647
889.917	19480.9
890.233	19458.98
890.55	19416.5
890.866	19456.04
891.182	19346.21
891.498	19321.13
891.815	19214.24
892.131	19115.49
892.447	19156.61
892.763	19057.86
893.079	18950.29
893.395	18948.94
893.71	18929.73
894.026	18916.17
894.342	18816.74
894.657	18689.96
894.973	18599.12
895.289	18569.74
895.604	18509.85
895.92	18420.36
896.235	18354.83
896.55	18420.14
896.865	18370.65
897.181	18219.69
897.496	18300.59
897.811	18069.19
898.126	18044.55
898.441	17967.95
898.756	17964.78
899.071	17853.37
899.386	17792.13
899.7	17787.61
900.015	17625.58
900.33	17413.61
900.644	17472.37
900.959	17508.97
901.273	17418.58
901.588	17307.4
901.902	17284.35
902.216	17279.38
902.531	17193.95
902.845	17135.65
903.159	16972.94
903.473	16975.2
903.787	16882.78
904.101	16836.22
904.415	16852.27
904.729	16741.76
905.042	16693.63
905.356	16689.79
905.67	16516.23
905.984	16550.13
906.297	16403.69
906.611	16281.21
906.924	16328.21
907.237	16219.52
907.551	16206.86
907.864	16071.5
908.177	16070.59
908.491	15998.73
908.804	15834.22
909.117	15742.47
909.43	15729.81
909.743	15690.04
910.056	15707.21
910.368	15645.75
910.681	15622.02
910.994	15490.04
911.307	15320.78
911.619	15246.66
911.932	15324.63
912.244	15184.52
912.557	15198.3
912.869	15038.53
913.181	15015.71
913.494	15005.31
913.806	14957.86
914.118	14829.27
914.43	14813.9
914.742	14758.09
915.054	14615.49
915.366	14578.43
915.678	14593.57
915.99	14464.31
916.302	14393.8
916.613	14367.14
916.925	14340.02
917.236	14280.36
917.548	14163.07
917.859	14231.32
918.171	14108.61
918.482	13927.15
918.794	13912.01
919.105	13950.65
919.416	13833.37
919.727	13744.33
920.038	13733.25
920.349	13751.56
920.66	13596.76
920.971	13575.52
921.282	13530.32
921.593	13361.51
921.903	13378.69
922.214	13402.64
922.525	13201.07
922.835	13191.8
923.146	13091.46
923.456	13037.45
923.767	12930.34
924.077	12920.85
924.387	12866.84
924.697	12813.05
925.008	12822.77
925.318	12740.06
925.628	12724.92
925.938	12624.13
926.248	12523.79
926.558	12412.39
926.867	12463.91
927.177	12362.22
927.487	12329.9
927.796	12186.4
928.106	12194.31
928.416	12169.91
928.725	12118.38
929.034	12130.58
929.344	12064.82
929.653	11946.18
929.962	11869.35
930.271	11889.91
930.581	11769.46
930.89	11756.36
931.199	11725.62
931.508	11666.87
931.817	11668
932.125	11644.72
932.434	11578.51
932.743	11439.53
933.051	11335.58
933.36	11405.63
933.669	11295.8
933.977	11222.59
934.286	11258.29
934.594	11123.38
934.902	11140.78
935.21	11036.6
935.519	10984.85
935.827	10988.24
936.135	10827.57
936.443	10762.71
936.751	10793.9
937.059	10778.98
937.367	10608.14
937.674	10735.14
937.982	10582.15
938.29	10600.91
938.597	10542.83
938.905	10461.25
939.213	10401.82
939.52	10349.84
939.827	10367.24
940.135	10260.8
940.442	10217.19
940.749	10191.43
941.056	10186.91
941.363	10099.9
941.67	10066.23
941.977	10059.23
942.284	9923.19
942.591	9976.97
942.898	9921.38
943.205	9845
943.511	9830.76
943.818	9796.64
944.125	9744.43
944.431	9641.38
944.738	9638.9
945.044	9616.53
945.35	9545.34
945.657	9470.77
945.963	9430.54
946.269	9382.41
946.575	9399.58
946.881	9289.3
947.187	9346.93
947.493	9202.98
947.799	9242.53
948.105	9186.03
948.41	9071.46
948.716	9072.59
949.022	9082.76
949.327	9068.52
949.633	8953.95
949.938	8930.9
950.244	8908.52
950.549	8817.45
950.854	8816.32
951.16	8748.3
951.465	8696.33
951.77	8661.98
952.075	8630.56
952.38	8634.41
952.685	8640.51
952.99	8492.26
953.294	8565.93
953.599	8433.51
953.904	8405.49
954.209	8351.02
954.513	8320.97
954.818	8360.06
955.122	8258.37
955.426	8276.45
955.731	8206.17
956.035	8121.65
956.339	8138.83
956.643	8065.83
956.948	8055.44
957.252	7942.45
957.556	7952.16
957.86	7942.67
958.163	7956.01
958.467	7879.85
958.771	7849.12
959.075	7817.25
959.378	7764.15
959.682	7769.8
959.985	7676.92
960.289	7650.48
960.592	7598.95
960.896	7585.62
961.199	7546.52
961.502	7534.1
961.805	7460.2
962.108	7433.76
962.411	7502.46
962.714	7374.55
963.017	7346.98
963.32	7299.98
963.623	7253.43
963.926	7234.89
964.228	7224.95
964.531	7180.21
964.833	7218.85
965.136	7076.48
965.438	7123.49
965.741	7005.97
966.043	6972.53
966.345	7022.47
966.648	6953.77
966.95	6922.13
967.252	6887.56
967.554	6921.46
967.856	6844.62
968.158	6789.71
968.46	6798.3
968.761	6703.84
969.063	6701.35
969.365	6688.47
969.666	6679.65
969.968	6532.77
970.269	6546.78
970.571	6569.83
970.872	6493.45
971.174	6516.5
971.475	6509.94
971.776	6441.24
972.077	6375.26
972.378	6416.61
972.679	6352.88
972.98	6356.73
973.281	6276.73
973.582	6286.22
973.883	6271.76
974.183	6184.53
974.484	6207.12
974.785	6114.92
975.085	6162.38
975.386	6130.29
975.686	6052.1
975.986	6010.75
976.287	6043.97
976.587	5957.41
976.887	5937.75
977.187	5970.97
977.487	5939.34
977.787	5887.81
978.087	5874.93
978.387	5787.25
978.687	5747.02
978.987	5692.79
979.286	5685.56
979.586	5740.02
979.885	5640.36
980.185	5672
980.484	5629.74
980.784	5608.5
981.083	5548.84
981.382	5555.16
981.682	5509.52
981.981	5474.71
982.28	5463.42
982.579	5486.69
982.878	5410.99
983.177	5441.95
983.475	5343.42
983.774	5309.97
984.073	5305.23
984.372	5283.76
984.67	5251.67
984.969	5242.63
985.267	5261.16
985.566	5169.64
985.864	5169.64
986.162	5134.61
986.461	5116.31
986.759	5119.47
987.057	5026.37
987.355	5032.01
987.653	5006.7
987.951	4938.68
988.249	4972.58
988.547	4967.61
988.844	4913.83
989.142	4905.92
989.44	4908.4
989.737	4857.1
990.035	4803.09
990.332	4836.77
990.63	4773.94
990.927	4776.88
991.224	4731.23
991.521	4735.07
991.819	4707.28
992.116	4637.45
992.413	4631.57
992.71	4598.35
993.006	4621.86
993.303	4579.82
993.6	4538.02
993.897	4537.11
994.193	4443.1
994.49	4470.9
994.787	4444.46
995.083	4431.35
995.379	4373.27
995.676	4418.7
995.972	4364.24
996.268	4323.33
996.565	4296.21
996.861	4377.57
997.157	4277.46
997.453	4252.6
997.749	4216.22
998.044	4185.71
998.34	4219.15
998.636	4232.94
998.932	4154.07
999.227	4054.64
999.523	4133.06
999.818	4049.89
1000.114	4084.24
1000.409	4015.09
1000.704	4006.96
1001	3999.27
1001.295	3915.89
1001.59	3926.28
1001.885	3915.89
1002.18	3915.89
1002.475	3875.43
1002.77	3837.92
1003.065	3812.84
1003.359	3805.83
1003.654	3763.8
1003.949	3762.44
1004.243	3791.6
1004.538	3739.62
1004.832	3691.71
1005.127	3689
1005.421	3660.98
1005.715	3599.51
1006.009	3623.46
1006.304	3623.24
1006.598	3555.9
1006.892	3544.82
1007.186	3520.87
1007.48	3505.05
1007.773	3494.88
1008.067	3456.01
1008.361	3435.67
1008.655	3413.75
1008.948	3420.31
1009.242	3379.63
1009.535	3341.89
1009.829	3351.83
1010.122	3298.95
1010.415	3281.55
1010.708	3266.64
1011.001	3232.29
1011.295	3216.92
1011.588	3225.28
1011.881	3176.02
1012.173	3155.23
1012.466	3150.26
1012.759	3140.54
1013.052	3092.63
1013.344	3058.51
1013.637	3104.38
1013.93	3049.69
1014.222	3031.62
1014.514	3000.88
1014.807	2971.96
1015.099	2967.89
1015.391	2940.09
1015.683	2945.52
1015.976	2906.65
1016.268	2911.84
1016.56	2899.19
1016.851	2858.06
1017.143	2845.41
1017.435	2834.11
1017.727	2771.06
1018.018	2736.48
1018.31	2778.51
1018.602	2763.6
1018.893	2731.28
1019.185	2675.01
1019.476	2681.34
1019.767	2684.28
1020.058	2629.14
1020.35	2616.94
1020.641	2623.04
1020.932	2543.72
1021.223	2573.1
1021.514	2573.55
1021.804	2516.83
1022.095	2519.09
1022.386	2520.89
1022.677	2502.82
1022.967	2473.44
1023.258	2428.69
1023.548	2422.14
1023.839	2384.17
1024.129	2393.89
1024.419	2367.45
1024.709	2330.84
1025	2357.28
1025.29	2333.33
1025.58	2307.79
1025.87	2290.62
1026.16	2275.7
1026.449	2272.31
1026.739	2256.49
1027.029	2196.83
1027.319	2188.93
1027.608	2176.72
1027.898	2174.24
1028.187	2171.52
1028.477	2121.81
1028.766	2150.28
1029.055	2098.98
1029.344	2100.79
1029.634	2061.47
1029.923	2020.12
1030.212	2033.68
1030.501	2041.58
1030.79	2011.3
1031.078	1982.38
1031.367	1963.39
1031.656	1982.6
1031.945	1958.42
1032.233	1935.15
1032.522	1943.28
1032.81	1891.76
1033.099	1873.23
1033.387	1884.98
1033.675	1856.05
1033.963	1827.13
1034.251	1817.86
1034.54	1846.11
1034.828	1808.14
1035.116	1783.51
1035.403	1778.77
1035.691	1756.17
1035.979	1776.05
1036.267	1754.81
1036.554	1755.26
1036.842	1700.8
1037.129	1714.14
1037.417	1686.57
1037.704	1706.23
1037.992	1680.69
1038.279	1660.13
1038.566	1650.86
1038.853	1650.86
1039.14	1650.86
