Data from 485_FLMS001491_007.txt Node
Date: Thu Apr 19 16:32:21 BST 2018
User: hsy
Spectrometer: FLMS00149
Trigger mode: 0
Integration Time (sec): 1.000000E-2
Scans to average: 10
Electric dark correction enabled: true
Nonlinearity correction enabled: false
Boxcar width: 0
XAxis mode: Wavelengths
Number of Pixels in Spectrum: 2048
>>>>>Begin Spectral Data<<<<<
341.393	-26.6
341.776	-26.6
342.16	-26.6
342.543	-56.2
342.927	-58.68
343.31	-81.74
343.693	-73.37
344.077	-73.15
344.46	-55.07
344.843	-62.3
345.226	-27.27
345.61	-36.54
345.993	-25.92
346.376	6.17
346.759	25.61
347.142	29.22
347.525	45.49
347.908	59.5
348.291	77.36
348.674	83.68
349.057	108.32
349.44	120.52
349.823	143.34
350.206	171.37
350.588	250.91
350.971	247.97
351.354	288.88
351.737	287.75
352.119	299.27
352.502	307.41
352.884	337.24
353.267	325.26
353.65	337.91
354.032	346.28
354.414	370.91
354.797	371.13
355.179	373.17
355.562	370.23
355.944	367.52
356.326	388.76
356.709	389.89
357.091	397.57
357.473	391.47
357.855	398.93
358.238	401.42
358.62	393.51
359.002	398.03
359.384	395.77
359.766	412.26
360.148	391.25
360.53	373.17
360.912	368.42
361.294	396.67
361.676	402.09
362.057	388.53
362.439	386.5
362.821	379.27
363.203	401.19
363.584	399.83
363.966	400.29
364.348	377.46
364.729	381.76
365.111	372.72
365.493	370.91
365.874	378.82
366.256	382.43
366.637	384.02
367.019	398.03
367.4	385.6
367.781	398.48
368.163	383.11
368.544	372.04
368.925	358.93
369.306	377.91
369.688	392.83
370.069	376.11
370.45	365.03
370.831	384.02
371.212	387.18
371.593	389.66
371.974	387.63
372.355	383.56
372.736	382.21
373.117	391.92
373.498	424.01
373.879	377.69
374.26	406.16
374.641	388.99
375.021	374.75
375.402	399.83
375.783	414.07
376.163	402.32
376.544	405.94
376.925	412.26
377.305	400.74
377.686	413.39
378.066	408.2
378.447	426.73
378.827	409.33
379.208	424.24
379.588	407.07
379.968	418.36
380.349	440.29
380.729	425.37
381.109	423.34
381.489	435.09
381.87	412.49
382.25	426.27
382.63	433.73
383.01	435.54
383.39	439.61
383.77	466.95
384.15	457.69
384.53	438.93
384.91	456.33
385.29	471.92
385.67	458.14
386.049	454.97
386.429	480.51
386.809	456.78
387.189	467.85
387.568	462.66
387.948	476.67
388.328	459.72
388.707	469.44
389.087	495.2
389.466	471.02
389.846	478.48
390.225	486.61
390.605	502.43
390.984	508.53
391.363	518.02
391.743	531.36
392.122	505.59
392.501	517.12
392.881	524.58
393.26	529.1
393.639	509.21
394.018	518.7
394.397	536.55
394.776	532.03
395.155	508.53
395.534	518.25
395.913	545.37
396.292	527.06
396.671	549.21
397.05	560.06
397.429	560.06
397.808	558.7
398.186	542.88
398.565	561.86
398.944	571.58
399.323	579.72
399.701	559.38
400.08	573.61
400.458	588.76
400.837	575.87
401.215	565.48
401.594	584.01
401.972	592.82
402.351	599.83
402.729	604.57
403.107	613.61
403.486	597.34
403.864	601.86
404.242	597.34
404.62	636.89
404.999	649.32
405.377	619.94
405.755	637.79
406.133	632.82
406.511	654.97
406.889	635.99
407.267	667.85
407.645	666.49
408.023	677.79
408.401	680.05
408.779	667.17
409.156	665.14
409.534	704.68
409.912	715.76
410.29	697.23
410.667	730.9
411.045	715.76
411.422	729.99
411.8	719.83
412.178	743.55
412.555	742.65
412.933	751.01
413.31	770.67
413.687	765.25
414.065	787.39
414.442	787.17
414.819	790.78
415.197	803.67
415.574	807.51
415.951	798.92
416.328	809.77
416.705	852.93
417.082	821.97
417.46	821.29
417.837	863.1
418.214	860.84
418.591	838.47
418.967	843.44
419.344	895.41
419.721	882.08
420.098	870.78
420.475	889.76
420.852	896.77
421.228	903.55
421.605	891.35
421.982	924.34
422.358	925.47
422.735	935.41
423.111	907.39
423.488	925.7
423.864	951.91
424.241	955.53
424.617	944
424.994	983.32
425.37	1000.72
425.746	981.97
426.123	989.2
426.499	974.06
426.875	1016.54
427.251	1039.82
427.627	1014.06
428.003	1039.82
428.379	1039.82
428.756	1058.35
429.132	1078.23
429.507	1096.31
429.883	1117.56
430.259	1119.59
430.635	1112.13
431.011	1121.17
431.387	1149.64
431.763	1151.9
432.138	1198.91
432.514	1187.61
432.89	1176.76
433.265	1193.03
433.641	1232.58
434.016	1255.63
434.392	1240.26
434.767	1277.33
435.143	1273.48
435.518	1299.02
435.894	1306.93
436.269	1340.83
436.644	1336.53
437.02	1326.14
437.395	1342.86
437.77	1346.02
438.145	1383.54
438.52	1380.15
438.895	1387.6
439.271	1405.68
439.646	1419.02
440.021	1426.02
440.395	1459.92
440.77	1426.47
441.145	1470.31
441.52	1443.65
441.895	1481.84
442.27	1493.14
442.645	1452.01
443.019	1493.36
443.394	1510.31
443.769	1524.1
444.143	1486.81
444.518	1500.14
444.892	1505.12
445.267	1522.52
445.641	1548.28
446.016	1532.69
446.39	1549.86
446.764	1571.78
447.139	1587.83
447.513	1610.88
447.887	1579.24
448.262	1564.78
448.636	1612.68
449.01	1653.59
449.384	1634.38
449.758	1641.61
450.132	1671.67
450.506	1707.37
450.88	1714.6
451.254	1725.45
451.628	1693.13
452.002	1706.92
452.376	1759.35
452.75	1814.49
453.123	1802.06
453.497	1797.54
453.871	1790.53
454.244	1854.49
454.618	1880.93
454.992	1865.33
455.365	1887.93
455.739	1935.39
456.112	1951.43
456.486	1984.2
456.859	1986.91
457.232	2032.79
457.606	2046.12
457.979	2056.06
458.352	2083.63
458.725	2105.55
459.099	2123.63
459.472	2157.3
459.845	2231.2
460.218	2188.94
460.591	2206.11
460.964	2239.33
461.337	2278.65
461.71	2305.77
462.083	2291.54
462.456	2340.8
462.829	2330.18
463.201	2375.83
463.574	2391.42
463.947	2426
464.32	2430.97
464.692	2478.65
465.065	2484.07
465.438	2525.65
465.81	2573.56
466.183	2582.15
466.555	2598.19
466.928	2670.51
467.3	2621.24
467.672	2689.27
468.045	2724.07
468.417	2729.72
468.789	2725.42
469.161	2788.25
469.534	2850.39
469.906	2902.82
470.278	2939.43
470.65	2948.47
471.022	2989.37
471.394	3012.19
471.766	3070.72
472.138	3103.72
472.51	3138.97
472.882	3197.73
473.253	3183.94
473.625	3292.41
473.997	3322.92
474.369	3341.9
474.74	3359.3
475.112	3437.04
475.484	3484.5
475.855	3531.5
476.227	3594.33
476.598	3655.12
476.97	3707.54
477.341	3731.5
477.713	3788.45
478.084	3884.94
478.455	3930.14
478.827	3959.74
479.198	4092.39
479.569	4098.49
479.94	4176.46
480.311	4236.8
480.682	4324.25
481.053	4427.98
481.424	4470.24
481.795	4509.56
482.166	4570.8
482.537	4618.48
482.908	4766.95
483.279	4823.22
483.65	4887.85
484.021	4926.04
484.391	5068.86
484.762	5121.07
485.133	5170.33
485.503	5231.35
485.874	5345.47
486.244	5445.58
486.615	5504.78
486.985	5570.09
487.356	5689.41
487.726	5774.61
488.097	5899.35
488.467	5895.73
488.837	6043.08
489.207	6083.75
489.578	6224.77
489.948	6337.98
490.318	6437.87
490.688	6418.88
491.058	6566
491.428	6635.15
491.798	6708.59
492.168	6865.43
492.538	6934.8
492.908	6961.7
493.278	7105.65
493.648	7185.19
494.017	7238.52
494.387	7320.1
494.757	7439.42
495.126	7487.78
495.496	7502.92
495.866	7608.91
496.235	7724.84
496.605	7683.26
496.974	7809.58
497.344	7954.21
497.713	8016.58
498.082	8078.28
498.452	8164.6
498.821	8235.56
499.19	8273.98
499.559	8362.11
499.928	8337.48
500.298	8464.71
500.667	8492.05
501.036	8578.83
501.405	8630.13
501.774	8701.31
502.143	8750.35
502.512	8822.66
502.88	8890.46
503.249	8944.24
503.618	9003.45
503.987	9026.27
504.356	9091.58
504.724	9204.35
505.093	9203.9
505.462	9273.73
505.83	9290.9
506.199	9364.57
506.567	9539.93
506.936	9536.77
507.304	9655.41
507.672	9673.04
508.041	9703.09
508.409	9796.88
508.777	9903.77
509.145	9940.15
509.514	9925.69
509.882	10039.13
510.25	10090.43
510.618	10095.17
510.986	10168.16
511.354	10190.09
511.722	10389.85
512.09	10429.4
512.458	10394.83
512.826	10521.6
513.193	10614.93
513.561	10671.43
513.929	10811.31
514.297	10812.67
514.664	10876.17
515.032	10933.12
515.4	11069.84
515.767	11117.74
516.135	11123.85
516.502	11139.21
516.869	11236.16
517.237	11416.04
517.604	11337.63
517.972	11522.25
518.339	11562.03
518.706	11734
519.073	11698.07
519.44	11719.76
519.808	11988.46
520.175	11915.24
520.542	12120.88
520.909	12187.55
521.276	12247.21
521.643	12395.68
522.009	12394.32
522.376	12609.23
522.743	12643.81
523.11	12801.77
523.477	12923.12
523.843	13016
524.21	13179.84
524.577	13197.24
524.943	13387.29
525.31	13408.76
525.676	13580.73
526.043	13672.48
526.409	13666.6
526.776	13905.69
527.142	13971.23
527.508	14039.48
527.874	14215.74
528.241	14309.52
528.607	14395.4
528.973	14661.61
529.339	14588.39
529.705	14732.34
530.071	14846.46
530.437	14956.97
530.803	15095.27
531.169	15169.62
531.535	15254.13
531.901	15339.1
532.267	15358.54
532.632	15539.32
532.998	15583.62
533.364	15754.91
533.73	15824.97
534.095	16039.42
534.461	15975.92
534.826	16082.81
535.192	16158.74
535.557	16277.61
535.923	16280.77
536.288	16451.84
536.653	16529.58
537.019	16506.98
537.384	16660.88
537.749	16786.3
538.114	16723.25
538.479	16781.32
538.845	16892.28
539.21	16945.16
539.575	17108.55
539.94	17184.93
540.305	17285.04
540.67	17187.42
541.034	17288.2
541.399	17350.12
541.764	17571.59
542.129	17499.5
542.494	17638.48
542.858	17613.39
543.223	17667.85
543.587	17790.11
543.952	17813.84
544.316	17930.22
544.681	17894.97
545.045	18119.14
545.41	18086.6
545.774	18136.54
546.138	18172.02
546.503	18244.79
546.867	18326.59
547.231	18381.51
547.595	18387.84
547.959	18487.95
548.324	18572.24
548.688	18599.58
549.052	18706.7
549.416	18766.13
549.779	18836.19
550.143	18932.68
550.507	18974.49
550.871	19049.29
551.235	19037.08
551.599	19144.2
551.962	19329.05
552.326	19296.06
552.689	19421.93
553.053	19356.17
553.417	19449.5
553.78	19607.01
554.143	19643.4
554.507	19731.98
554.87	19831.64
555.234	19996.16
555.597	19979.43
555.96	20128.81
556.323	20165.87
556.686	20275.47
557.05	20315.02
557.413	20466.88
557.776	20535.35
558.139	20607.89
558.502	20713.65
558.865	20797.04
559.228	21032.74
559.59	21164.49
559.953	21105.5
560.316	21330.13
560.679	21367.42
561.041	21420.52
561.404	21556.79
561.767	21824.81
562.129	21710.01
562.492	21975.99
562.854	22090.79
563.217	22176.44
563.579	22229.32
563.941	22445.81
564.304	22534.39
564.666	22786.36
565.028	22696.42
565.39	22851
565.753	23095.96
566.115	23049.41
566.477	23340.02
566.839	23359.46
567.201	23643.29
567.563	23626.34
567.925	23785.43
568.287	23926.67
568.648	24015.71
569.01	24162.6
569.372	24349.03
569.734	24422.93
570.095	24692.08
570.457	24730.49
570.819	24898.17
571.18	24788.12
571.542	25074.44
571.903	25144.49
572.265	25390.59
572.626	25603.24
572.987	25565.73
573.349	25775.44
573.71	26013.4
574.071	26156.22
574.432	26231.7
574.794	26526.38
575.155	26526.83
575.516	26474.63
575.877	26730.44
576.238	26797.11
576.599	26876.88
576.96	27029.19
577.32	27065.8
577.681	27359.8
578.042	27434.6
578.403	27421.27
578.763	27576.07
579.124	27725.22
579.485	27932.44
579.845	28101.03
580.206	28103.74
580.566	28237.97
580.927	28351.42
581.287	28607.91
581.648	28715.47
582.008	28996.6
582.368	29064.39
582.728	29301.45
583.089	29291.05
583.449	29406.98
583.809	29747.76
584.169	29931.49
584.529	30038.6
584.889	30559.72
585.249	30439.27
585.609	30625.48
585.969	31021.18
586.329	31217.1
586.688	31684.44
587.048	31848.27
587.408	32025.9
587.768	32377.3
588.127	32645.77
588.487	33069.94
588.846	33547.21
589.206	33700.65
589.565	33990.36
589.925	34597.8
590.284	34790.12
590.643	35280.27
591.003	35710.09
591.362	36392.79
591.721	36804.75
592.08	37142.6
592.44	37747.55
592.799	38008.79
593.158	38632.05
593.517	38964.24
593.876	39525.36
594.235	39863.43
594.593	40310.88
594.952	40991.54
595.311	41423.84
595.67	41869.25
596.029	42575.9
596.387	43124.81
596.746	43667.85
597.104	44094.73
597.463	44380.6
597.822	45168.37
598.18	45604.97
598.538	46031.85
598.897	46667.77
599.255	46848.1
599.613	47728.99
599.972	48022.99
600.33	48437.44
600.688	48784.78
601.046	49331.43
601.404	49873.56
601.762	50134.57
602.12	50615.91
602.478	51082.34
602.836	51392.62
603.194	51517.59
603.552	52049.32
603.91	52198.25
604.268	52664.22
604.625	52889.3
604.983	53261.72
605.341	53455.61
605.698	53939.44
606.056	54374.46
606.413	54448.58
606.771	54773.55
607.128	55078.17
607.485	55264.15
607.843	55441.1
608.2	55804.93
608.557	56136.45
608.914	56165.37
609.272	56491.92
609.629	56821.85
609.986	57128.06
610.343	57187.49
610.7	57616.41
611.057	57720.59
611.414	57788.16
611.771	58084.65
612.127	58262.49
612.484	58463.39
612.841	58645.76
613.198	58652.99
613.554	58810.95
613.911	59094.56
614.267	59241.45
614.624	59311.28
614.98	59560.09
615.337	59845.05
615.693	59888.21
616.05	60001.2
616.406	60212.27
616.762	60330.91
617.118	60426.5
617.475	60502.21
617.831	60743.78
618.187	60864.46
618.543	60969.31
618.899	61146.94
619.255	61211.12
619.611	61228.74
619.967	61467.38
620.323	61572.69
620.678	61586.47
621.034	61586.25
621.39	61725
621.746	61711.89
622.101	62093.35
622.457	61959.12
622.812	62203.63
623.168	62183.97
623.523	62281.14
623.879	62437.75
624.234	62435.27
624.589	62482.27
624.945	62525.43
625.3	62621.93
625.655	62631.87
626.01	62672.32
626.365	62761.58
626.72	62729.72
627.075	62718.42
627.43	62808.81
627.785	62848.59
628.14	62910.05
628.495	62920.22
628.85	62967
629.205	62922.71
629.559	63071.63
629.914	62960.22
630.269	63035.25
630.623	62927.23
630.978	62950.05
631.332	63146.66
631.687	63154.12
632.041	63097.17
632.396	63135.13
632.75	63115.7
633.104	63219.65
633.459	63056.94
633.813	63123.83
634.167	63058.75
634.521	63125.42
634.875	63120.67
635.229	63107.79
635.583	63041.12
635.937	63005.42
636.291	63117.28
636.645	63038.87
636.999	62965.65
637.352	63062.82
637.706	62910.51
638.06	63079.09
638.413	62961.8
638.767	62942.37
639.121	62936.04
639.474	62869.83
639.828	62918.42
640.181	62881.81
640.534	62995.93
640.888	62832.77
641.241	62777.63
641.594	62768.14
641.947	62859.89
642.301	62787.8
642.654	62792.09
643.007	62715.03
643.36	62807.68
643.713	62723.85
644.066	62833.22
644.419	62702.6
644.771	62423.74
645.124	62275.27
645.477	62239.34
645.83	62136.29
646.182	62174.93
646.535	62100.81
646.888	62153.69
647.24	62076.86
647.593	62156.18
647.945	62042.73
648.298	61994.82
648.65	61931.32
649.002	61760.48
649.355	61771.1
649.707	61692.46
650.059	61722.97
650.411	62081.15
650.763	62141.94
651.115	62479.33
651.467	62317.08
651.819	62386
652.171	62240.92
652.523	62296.29
652.875	62277.53
653.227	62200.92
653.578	62296.29
653.93	62274.59
654.282	62155.5
654.633	62161.83
654.985	62169.28
655.337	62155.05
655.688	62124.31
656.039	62190.3
656.391	61925.45
656.742	62023.52
657.094	62113.69
657.445	62030.76
657.796	62041.83
658.147	61962.28
658.498	62062.85
658.849	62064.65
659.2	61932.91
659.551	61931.55
659.902	62041.15
660.253	61874.6
660.604	61995.73
660.955	61849.52
661.306	61985.79
661.656	61893.36
662.007	61901.95
662.358	61931.78
662.708	61871.44
663.059	61916.18
663.409	61734.49
663.76	61860.82
664.11	61889.06
664.461	61918.89
664.811	61853.59
665.161	61833.47
665.511	61751.89
665.862	61808.16
666.212	61809.97
666.562	61854.94
666.912	61784.21
667.262	61715.74
667.612	61701.95
667.962	61729.52
668.312	61741.72
668.662	61904.88
669.011	61756.64
669.361	61728.84
669.711	61739.92
670.06	61665.12
670.41	61650.65
670.76	61634.83
671.109	61760.93
671.459	61660.14
671.808	61640.48
672.157	61741.72
672.507	61591.67
672.856	61584.44
673.205	61617.66
673.554	61665.12
673.904	61593.48
674.253	61733.14
674.602	61593.03
674.951	61266.03
675.3	61181.06
675.649	61612.01
675.998	61595.06
676.346	61558.23
676.695	61665.34
677.044	61495.18
677.393	61545.12
677.741	61583.76
678.09	61460.6
678.438	61421.51
678.787	61527.04
679.135	61505.35
679.484	61394.84
679.832	61452.69
680.181	61334.28
680.529	61437.1
680.877	61287.72
681.225	61348.29
681.573	61480.49
681.922	61288.18
682.27	61288.63
682.618	61262.41
682.966	61198.69
683.314	61203.89
683.661	61141.51
684.009	61098.8
684.357	61038.47
684.705	60984.68
685.053	61051.12
685.4	60948.3
685.748	60926.15
686.095	60936.1
686.443	60808.64
686.79	60878.02
687.138	60876.66
687.485	60819.04
687.832	60763.9
688.18	60820.84
688.527	60704.01
688.874	60681.86
689.221	60663.79
689.568	60585.6
689.915	60489.33
690.262	60517.58
690.609	60445.49
690.956	60309.67
691.303	60358.94
691.65	60266.96
691.997	60256.11
692.344	60102.9
692.69	60094.08
693.037	60116.68
693.383	59945.84
693.73	59988.32
694.077	59849.8
694.423	59926.4
694.769	59869
695.116	59750.82
695.462	59706.75
695.808	59607.77
696.155	59635.79
696.501	59484.83
696.847	59536.81
697.193	59429.47
697.539	59480.09
697.885	59290.04
698.231	59253.2
698.577	59226.31
698.923	59184.05
699.269	59072.42
699.614	59002.59
699.96	58816.83
700.306	58942.93
700.651	58816.38
700.997	58726.44
701.342	58656.61
701.688	58692.99
702.033	58588.36
702.379	58547.23
702.724	58484.41
703.069	58519.66
703.415	58229.5
703.76	58204.87
704.105	58314.47
704.45	58160.35
704.795	58054.36
705.14	58040.35
705.485	58077.19
705.83	57883.75
706.175	57963.07
706.52	57799
706.865	57719.23
707.209	57668.61
707.554	57621.83
707.899	57639.91
708.243	57439.92
708.588	57489.18
708.932	57323.99
709.277	57369.41
709.621	57281.95
709.966	57061.17
710.31	57152.69
710.654	56995.18
710.998	57044.45
711.342	57063.2
711.687	56911.57
712.031	56834.28
712.375	56818.01
712.719	56783.44
713.063	56688.3
713.407	56826.83
713.75	56659.37
714.094	56624.8
714.438	56473.61
714.782	56542.99
715.125	56390.45
715.469	56503.22
715.812	56209.21
716.156	56180.51
716.499	56163.57
716.843	56177.12
717.186	56133.51
717.53	56199.04
717.873	56152.94
718.216	56073.85
718.559	55925.38
718.902	55715.22
719.246	55867.98
719.589	55714.76
719.932	55639.96
720.275	55568.55
720.617	55639.74
720.96	55527.88
721.303	55545.05
721.646	55589.34
721.989	55359.74
722.331	55424.38
722.674	55358.84
723.016	55308.22
723.359	55224.61
723.701	55346.64
724.044	55127.43
724.386	55029.58
724.729	55147.55
725.071	55085.85
725.413	55040.21
725.755	55007.89
726.097	54912.3
726.439	54821.91
726.782	54782.58
727.124	54950.04
727.465	54814.67
727.807	54684.51
728.149	54707.33
728.491	54638.18
728.833	54614.23
729.175	54578.3
729.516	54500.78
729.858	54438.87
730.199	54497.62
730.541	54432.54
730.882	54296.95
731.224	54304.63
731.565	54213.33
731.906	54292.65
732.248	54202.26
732.589	54172.66
732.93	54039.1
733.271	54054.24
733.612	54050.63
733.953	54135.14
734.294	53979.44
734.635	53918.43
734.976	54073.68
735.317	53908.26
735.658	53889.73
735.999	53691.54
736.339	53701.48
736.68	53764.76
737.021	53659.68
737.361	53553.01
737.702	53695.16
738.042	53558.89
738.383	53614.93
738.723	53595.5
739.063	53469.85
739.404	53536.52
739.744	53461.04
740.084	53351.44
740.424	53367.25
740.764	53152.8
741.104	53415.16
741.444	53180.82
741.784	53186.69
742.124	53257.65
742.464	53145.79
742.804	53148.28
743.143	53015.85
743.483	53034.38
743.823	52945.35
744.162	52929.53
744.502	52983.76
744.841	52881.62
745.181	53018.34
745.52	52857.89
745.86	52860.6
746.199	52748.29
746.538	52733.6
746.877	52819.7
747.216	52687.72
747.556	52475.53
747.895	52489.76
748.234	52488.18
748.573	52516.2
748.911	52369.54
749.25	52405.02
749.589	52275.08
749.928	52248.41
750.267	52347.62
750.605	52165.93
750.944	52167.96
751.283	52023.11
751.621	52190.79
751.96	51891.14
752.298	51905.15
752.636	51867.41
752.975	51751.25
753.313	51679.39
753.651	51926.16
753.989	51483.01
754.327	51757.13
754.666	51335.67
755.004	51473.52
755.342	51451.83
755.679	51422.22
756.017	51109.69
756.355	51262.9
756.693	51057.71
757.031	51100.42
757.368	50972.29
757.706	50947.88
758.044	50805.29
758.381	50834.89
758.719	50770.26
759.056	50678.51
759.394	50561.68
759.731	50279.88
760.068	50307.22
760.405	50252.99
760.743	50060.9
761.08	50144.74
761.417	50045.08
761.754	49934.12
762.091	49883.28
762.428	49621.36
762.765	49490.07
763.102	49569.16
763.438	49467.24
763.775	49053.24
764.112	49144.32
764.449	49114.03
764.785	48963.75
765.122	48773.03
765.458	48624.78
765.795	48596.31
766.131	48563.31
766.467	48451.9
766.804	48207.84
767.14	48032.25
767.476	47957
767.812	47974.85
768.148	47924.01
768.485	47764.01
768.821	47361.09
769.157	47384.36
769.492	47252.84
769.828	47151.15
770.164	46947.31
770.5	46718.84
770.836	46802.46
771.171	46551.84
771.507	46424.61
771.842	46303.26
772.178	46208.12
772.513	46013.55
772.849	45811.07
773.184	45986.66
773.519	45657.63
773.855	45458.99
774.19	45395.71
774.525	45154.14
774.86	45007.25
775.195	44903.97
775.53	44829.85
775.865	44508.28
776.2	44398
776.535	44139.02
776.87	44045.01
777.205	43874.85
777.539	43650
777.874	43845.92
778.209	43303.56
778.543	43440.28
778.878	43173.62
779.212	43186.05
779.547	42794.65
779.881	42923.91
780.215	42534.09
780.55	42572.96
780.884	42156.48
781.218	42196.48
781.552	42219.75
781.886	41810.04
782.22	41750.16
782.554	41586.77
782.888	41119.67
783.222	41086.45
783.556	40908.15
783.889	40942.5
784.223	40686.46
784.557	40567.37
784.89	40719.9
785.224	40198.56
785.557	40088.96
785.891	39957.44
786.224	40011
786.558	39943.43
786.891	39658.91
787.224	39436.1
787.557	39215.54
787.891	39128.31
788.224	38899.39
788.557	38909.33
788.89	38740.07
789.223	38778.03
789.556	38456.69
789.888	38299.4
790.221	38343.7
790.554	38097.83
790.887	38002.46
791.219	37847.21
791.552	37651.51
791.884	37565.18
792.217	37548.69
792.549	37339.88
792.882	37078.64
793.214	36924.3
793.546	37043.62
793.879	36757.52
794.211	36537.64
794.543	36650.86
794.875	36395.27
795.207	36562.27
795.539	36350.08
795.871	36388.04
796.203	36125.67
796.535	35847.04
796.867	35925.68
797.198	35700.37
797.53	35766.81
797.862	35306.71
798.193	35479.82
798.525	35274.4
798.856	35358.01
799.188	34898.36
799.519	34817.46
799.85	34645.71
800.182	34601.42
800.513	34726.62
800.844	34271.94
801.175	34460.41
801.506	34403.46
801.837	34187.19
802.168	34177.93
802.499	34149
802.83	33750.37
803.161	33728.9
803.491	33773.65
803.822	33784.94
804.153	33497.49
804.483	33362.81
804.814	33151.06
805.145	33208.91
805.475	33203.27
805.805	33031.74
806.136	32996.04
806.466	32909.26
806.796	32768.02
807.126	32562.83
807.457	32552.89
807.787	32571.42
808.117	32404.64
808.447	32321.93
808.777	32365.32
809.107	32041.94
809.436	31962.62
809.766	31981.15
810.096	31937.99
810.426	31770.31
810.755	31923.98
811.085	31701.16
811.414	31670.65
811.744	31568.51
812.073	31575.51
812.403	31353.6
812.732	31153.15
813.061	31337.1
813.39	31018.46
813.719	31004.23
814.049	31057.11
814.378	31034.06
814.707	30775.08
815.036	30930.78
815.365	30718.81
815.693	30548.42
816.022	30538.48
816.351	30472.72
816.68	30324.7
817.008	30375.77
817.337	30058.49
817.665	30133.74
817.994	29937.59
818.322	30108.21
818.651	29884.26
818.979	29711.61
819.307	29865.95
819.636	29682.23
819.964	29610.14
820.292	29747.76
820.62	29683.58
820.948	29698.5
821.276	29830.02
821.604	29620.76
821.932	29770.14
822.259	29652.4
822.587	29547.99
822.915	29512.29
823.243	29651.27
823.57	29377.6
823.898	29717.71
824.225	29506.19
824.553	29517.71
824.88	29488.33
825.207	29697.14
825.535	29518.84
825.862	29636.81
826.189	29447.88
826.516	29619.18
826.843	29647.2
827.17	29602.23
827.497	29615.79
827.824	29705.5
828.151	29751.38
828.478	29504.83
828.805	29695.11
829.131	29618.5
829.458	29573.08
829.785	29322.69
830.111	29530.37
830.438	29684.04
830.764	29536.92
831.09	29563.81
831.417	29488.11
831.743	29642.68
832.069	29389.35
832.395	29444.95
832.722	29532.18
833.048	29313.88
833.374	29470.71
833.7	29244.95
834.026	29385.96
834.351	29305.29
834.677	29313.42
835.003	29298.28
835.329	29320.88
835.654	29275.91
835.98	29056.93
836.306	29241.34
836.631	29169.47
836.956	29290.15
837.282	29138.74
837.607	28979.42
837.932	28981.91
838.258	29006.31
838.583	28935.58
838.908	28790.73
839.233	28991.4
839.558	28778.75
839.883	28641.35
840.208	28604.52
840.533	28687.23
840.858	28608.81
841.182	28552.77
841.507	28588.25
841.832	28408.14
842.156	28492.88
842.481	28348.03
842.805	28285.88
843.13	28139.9
843.454	28200.91
843.778	28205.66
844.103	28214.02
844.427	27940.13
844.751	28088.15
845.075	27888.15
845.399	27832.56
845.723	27720.92
846.047	27802.73
846.371	27565
846.695	27417.2
847.019	27397.99
847.343	27335.4
847.666	27142.18
847.99	27083.2
848.313	26884.11
848.637	26912.36
848.96	26942.64
849.284	26692.93
849.607	26573.61
849.931	26475.98
850.254	26317.57
850.577	26032.61
850.9	25937.24
851.223	26068.09
851.546	25866.51
851.869	25669
852.192	25946.51
852.515	25636.46
852.838	25480.3
853.161	25451.6
853.483	25381.1
853.806	25373.87
854.129	25292.74
854.451	25102.69
854.774	24970.94
855.096	24827.67
855.419	24739.99
855.741	24739.08
856.063	24693.21
856.385	24499.77
856.708	24530.73
857.03	24364.4
857.352	24339.54
857.674	24318.08
857.996	24177.51
858.318	23998.54
858.64	23955.82
858.961	23949.05
859.283	23940.23
859.605	23862.04
859.926	23783.17
860.248	23728.71
860.57	23660.92
860.891	23624.08
861.212	23450.98
861.534	23409.17
861.855	23327.14
862.176	23428.61
862.498	23448.72
862.819	23335.5
863.14	23242.17
863.461	23097.54
863.782	23084.66
864.103	23147.26
864.424	23000.37
864.745	23033.82
865.065	22875.18
865.386	22909.52
865.707	22854.38
866.027	22816.42
866.348	22712.24
866.668	22785.69
866.989	22689.64
867.309	22557.67
867.63	22585.24
867.95	22623.2
868.27	22500.5
868.59	22554.96
868.91	22446.03
869.23	22346.83
869.55	22360.39
869.87	22372.14
870.19	22271.35
870.51	22298.69
870.83	22221.41
871.15	22081.75
871.469	22198.36
871.789	22246.04
872.109	22021.64
872.428	21995.42
872.748	22155.87
873.067	21954.3
873.386	22110.45
873.706	21999.94
874.025	21941.41
874.344	21826.84
874.663	21876.78
874.982	21746.84
875.301	21759.72
875.62	21702.1
875.939	21535.32
876.258	21670.46
876.577	21423.46
876.896	21596.56
877.214	21555.21
877.533	21606.96
877.852	21435.21
878.17	21447.87
878.489	21463.46
878.807	21276.12
879.125	21269.57
879.444	21223.47
879.762	21209.23
880.08	21347.31
880.398	21084.94
880.716	21137.14
881.034	21067.77
881.352	21101.21
881.67	20976.02
881.988	21084.04
882.306	20871.16
882.624	20905.06
882.941	20758.85
883.259	20696.7
883.577	20673.65
883.894	20633.43
884.212	20555.46
884.529	20614.22
884.846	20447.89
885.164	20417.84
885.481	20311.17
885.798	20453.32
886.115	20228.92
886.432	20325.41
886.75	20233.66
887.067	20279.76
887.383	20196.38
887.7	20209.03
888.017	20050.39
888.334	20005.42
888.651	20013.33
888.967	19859.89
889.284	19812.88
889.6	19771.3
889.917	19755.26
890.233	19619.44
890.55	19677.29
890.866	19539.67
891.182	19563.17
891.498	19569.5
891.815	19389.62
892.131	19318.66
892.447	19373.35
892.763	19169.28
893.079	19172.45
893.395	19155.05
893.71	19081.15
894.026	18968.39
894.342	19022.17
894.657	18862.63
894.973	18778.11
895.289	18806.58
895.604	18781.05
895.92	18637.09
896.235	18654.5
896.55	18707.15
896.865	18501.96
897.181	18415.41
897.496	18472.81
897.811	18245.92
898.126	18129.54
898.441	18197.33
898.756	18181.74
899.071	18027.62
899.386	18070.1
899.7	17935.19
900.015	17828.98
900.33	17691.81
900.644	17675.54
900.959	17757.12
901.273	17607.74
901.588	17588.99
901.902	17478.03
902.216	17416.56
902.531	17344.47
902.845	17263.8
903.159	17182.67
903.473	17154.2
903.787	17064.03
904.101	16980.42
904.415	16985.61
904.729	16956.23
905.042	16810.7
905.356	16835.11
905.67	16718.73
905.984	16666.07
906.297	16631.72
906.611	16505.63
906.924	16529.13
907.237	16409.58
907.551	16494.78
907.864	16359.87
908.177	16283.03
908.491	16196.93
908.804	16037.39
909.117	16131.17
909.43	15978.86
909.743	15837.39
910.056	15958.75
910.368	15836.94
910.681	15762.82
910.994	15649.6
911.307	15534.58
911.619	15462.49
911.932	15464.3
912.244	15348.82
912.557	15337.29
912.869	15260.69
913.181	15214.13
913.494	15195.83
913.806	15088.04
914.118	15075.61
914.43	14995.38
914.742	14949.51
915.054	14782.51
915.366	14788.38
915.678	14700.48
915.99	14708.84
916.302	14548.61
916.613	14509.75
916.925	14457.77
917.236	14492.8
917.548	14309.75
917.859	14216.19
918.171	14203.99
918.482	14137.78
918.794	14076.08
919.105	14025.01
919.416	13992.92
919.727	13925.81
920.038	13926.03
920.349	13805.36
920.66	13770.56
920.971	13699.82
921.282	13674.97
921.593	13520.85
921.903	13466.16
922.214	13438.36
922.525	13399.94
922.835	13291.02
923.146	13206.73
923.456	13162.21
923.767	13115.43
924.077	13062.1
924.387	13102.32
924.697	12957.24
925.008	12931.26
925.318	12810.81
925.628	12848.55
925.938	12840.86
926.248	12623.69
926.558	12676.12
926.867	12585.95
927.177	12468.9
927.487	12462.79
927.796	12382.8
928.106	12419.86
928.416	12341.67
928.725	12337.83
929.034	12244.04
929.344	12196.59
929.653	12159.07
929.962	11990.04
930.271	11959.98
930.581	11947.1
930.89	11903.49
931.199	11855.8
931.508	11831.62
931.817	11731.51
932.125	11759.76
932.434	11664.17
932.743	11476.38
933.051	11470.96
933.36	11511.86
933.669	11355.7
933.977	11382.14
934.286	11272.54
934.594	11235.71
934.902	11197.74
935.21	11160
935.519	11089.27
935.827	10974.25
936.135	11039.33
936.443	10952.78
936.751	10947.13
937.059	10935.15
937.367	10772.67
937.674	10784.65
937.982	10756.17
938.29	10748.04
938.597	10678.89
938.905	10595.27
939.213	10561.37
939.52	10522.51
939.827	10529.96
940.135	10355.96
940.442	10312.12
940.749	10311.44
941.056	10321.38
941.363	10165
941.67	10143.08
941.977	10135.4
942.284	10074.83
942.591	10018.11
942.898	9988.96
943.205	10055.85
943.511	9997.1
943.818	9939.92
944.125	9801.17
944.431	9746.93
944.738	9748.97
945.044	9701.28
945.35	9603.89
945.657	9552.36
945.963	9636.43
946.269	9489.09
946.575	9587.84
946.881	9466.71
947.187	9473.49
947.493	9273.27
947.799	9313.05
948.105	9299.04
948.41	9219.04
948.716	9223.1
949.022	9174.74
949.327	9167.06
949.633	9028.08
949.938	9022.66
950.244	9042.77
950.549	8992.15
950.854	8846.62
951.16	8901.76
951.465	8791.48
951.77	8813.4
952.075	8725.04
952.38	8733.4
952.685	8690.24
952.99	8579.73
953.294	8589
953.599	8541.54
953.904	8451.6
954.209	8456.8
954.513	8462.67
954.818	8432.84
955.122	8378.61
955.426	8330.7
955.731	8238.95
956.035	8245.28
956.339	8178.61
956.643	8194.88
956.948	8117.37
957.252	8062.91
957.556	8056.13
957.86	8004.38
958.163	8005.74
958.467	7963.48
958.771	7973.65
959.075	7877.6
959.378	7842.8
959.682	7854.55
959.985	7787.66
960.289	7744.95
960.592	7661.56
960.896	7701.34
961.199	7624.05
961.502	7598.29
961.805	7581.34
962.108	7519.87
962.411	7561.91
962.714	7474.22
963.017	7425.64
963.32	7424.28
963.623	7336.83
963.926	7346.32
964.228	7270.84
964.531	7298.86
964.833	7244.4
965.136	7221.58
965.438	7202.14
965.741	7156.27
966.043	7085.99
966.345	7038.3
966.648	7029.94
966.95	6968.25
967.252	6934.13
967.554	6968.47
967.856	6896.39
968.158	6854.13
968.46	6875.6
968.761	6863.84
969.063	6787.46
969.365	6751.98
969.666	6765.77
969.968	6672.21
970.269	6671.53
970.571	6648.26
970.872	6591.76
971.174	6545.89
971.475	6512.22
971.776	6507.47
972.077	6498.88
972.378	6449.62
972.679	6408.04
972.98	6513.12
973.281	6372.56
973.582	6316.06
973.883	6328.27
974.183	6290.98
974.484	6238.1
974.785	6199.23
975.085	6203.52
975.386	6186.57
975.686	6120.36
975.986	6067.93
976.287	6135.95
976.587	6043.75
976.887	5977.31
977.187	5990.87
977.487	6017.99
977.787	5887.37
978.087	5899.58
978.387	5902.97
978.687	5857.54
978.987	5813.48
979.286	5806.92
979.586	5830.2
979.885	5747.49
980.185	5718.11
980.484	5690.32
980.784	5657.55
981.083	5592.47
981.382	5561.28
981.682	5607.83
981.981	5585.01
982.28	5520.6
982.579	5492.36
982.878	5466.14
983.177	5450.55
983.475	5434.73
983.774	5392.92
984.073	5334.17
984.372	5315.64
984.67	5326.03
984.969	5330.78
985.267	5292.13
985.566	5262.98
985.864	5216.43
986.162	5202.42
986.461	5134.4
986.759	5166.26
987.057	5109.77
987.355	5063.89
987.653	5069.32
987.951	5011.24
988.249	5044.01
988.547	4969.66
988.844	4992.03
989.142	4945.7
989.44	4943.67
989.737	4967.17
990.035	4842.2
990.332	4862.32
990.63	4818.7
990.927	4826.38
991.224	4811.7
991.521	4802.43
991.819	4746.61
992.116	4735.99
992.413	4664.35
992.71	4668.65
993.006	4673.17
993.303	4607.86
993.6	4642.66
993.897	4561.31
994.193	4570.12
994.49	4503.91
994.787	4510.69
995.083	4470.69
995.379	4481.53
995.676	4459.39
995.972	4394.76
996.268	4408.54
996.565	4375.1
996.861	4331.71
997.157	4364.02
997.453	4298.26
997.749	4277.92
998.044	4220.98
998.34	4235.67
998.636	4209.9
998.932	4147.98
999.227	4172.84
999.523	4150.47
999.818	4103.47
1000.114	4064.37
1000.409	4097.36
1000.704	4067.99
1001	4041.55
1001.295	4007.65
1001.59	3966.52
1001.885	3946.86
1002.18	3944.15
1002.475	3876.13
1002.77	3893.08
1003.065	3897.14
1003.359	3835.68
1003.654	3828.9
1003.949	3823.7
1004.243	3799.29
1004.538	3770.14
1004.832	3752.51
1005.127	3728.11
1005.421	3738.96
1005.715	3689.01
1006.009	3676.58
1006.304	3642.23
1006.598	3624.83
1006.892	3550.03
1007.186	3572.63
1007.48	3503.48
1007.773	3497.15
1008.067	3475.01
1008.361	3450.6
1008.655	3461.45
1008.948	3455.35
1009.242	3433.65
1009.535	3406.99
1009.829	3406.31
1010.122	3349.14
1010.415	3308.23
1010.708	3314.11
1011.001	3299.42
1011.295	3272.98
1011.588	3247.67
1011.881	3245.63
1012.173	3223.71
1012.466	3197.73
1012.759	3160.21
1013.052	3134.9
1013.344	3106.43
1013.637	3086.09
1013.93	3066.43
1014.222	3090.16
1014.514	3037.28
1014.807	3024.17
1015.099	3039.99
1015.391	2995.92
1015.683	2961.57
1015.976	2936.72
1016.268	2933.1
1016.56	2925.19
1016.851	2901.92
1017.143	2886.32
1017.435	2859.66
1017.727	2868.7
1018.018	2804.97
1018.31	2810.39
1018.602	2812.2
1018.893	2769.04
1019.185	2720
1019.476	2715.71
1019.767	2741.24
1020.058	2686.55
1020.35	2687.23
1020.641	2631.87
1020.932	2619.66
1021.223	2614.92
1021.514	2572.66
1021.804	2586.44
1022.095	2530.85
1022.386	2552.55
1022.677	2497.18
1022.967	2501.02
1023.258	2472.77
1023.548	2449.5
1023.839	2443.85
1024.129	2443.17
1024.419	2412.21
1024.709	2403.17
1025	2430.74
1025.29	2335.15
1025.58	2327.24
1025.87	2313.91
1026.16	2321.14
1026.449	2285.21
1026.739	2294.25
1027.029	2284.3
1027.319	2242.72
1027.608	2206.57
1027.898	2192.56
1028.187	2174.7
1028.477	2161.82
1028.766	2163.86
1029.055	2140.35
1029.344	2142.84
1029.634	2111.43
1029.923	2102.39
1030.212	2091.09
1030.501	2066.23
1030.79	2061.26
1031.078	2009.96
1031.367	2025.55
1031.656	1990.75
1031.945	1982.84
1032.233	1985.78
1032.522	1960.7
1032.81	1954.82
1033.099	1939.68
1033.387	1926.12
1033.675	1880.25
1033.963	1902.85
1034.251	1905.56
1034.54	1836.63
1034.828	1881.6
1035.116	1834.82
1035.403	1831.89
1035.691	1788.5
1035.979	1803.41
1036.267	1789.85
1036.554	1765.22
1036.842	1766.35
1037.129	1726.13
1037.417	1710.08
1037.704	1722.96
1037.992	1687.71
1038.279	1691.78
1038.566	1685.45
1038.853	1685.45
1039.14	1685.45
