Data from 485_FLMS001491_001.txt Node
Date: Thu Apr 19 16:32:07 BST 2018
User: hsy
Spectrometer: FLMS00149
Trigger mode: 0
Integration Time (sec): 1.000000E-2
Scans to average: 10
Electric dark correction enabled: true
Nonlinearity correction enabled: false
Boxcar width: 0
XAxis mode: Wavelengths
Number of Pixels in Spectrum: 2048
>>>>>Begin Spectral Data<<<<<
341.393	-16.41
341.776	-16.41
342.16	-16.41
342.543	-46.69
342.927	-81.95
343.31	-56.18
343.693	-80.82
344.077	-67.26
344.46	-52.8
344.843	-69.97
345.226	-54.38
345.61	-22.29
345.993	-22.74
346.376	1.89
346.759	26.52
347.142	34.66
347.525	45.51
347.908	55.68
348.291	74.21
348.674	90.25
349.057	97.71
349.44	142.45
349.823	138.16
350.206	185.39
350.588	251.38
350.971	255.45
351.354	260.42
351.737	299.51
352.119	302.22
352.502	313.52
352.884	333.86
353.267	325.05
353.65	342
354.032	345.16
354.414	369.57
354.797	353.75
355.179	387.87
355.562	380.64
355.944	393.52
356.326	372.28
356.709	394.88
357.091	396.46
357.473	375.22
357.855	397.36
358.238	396.46
358.62	389.68
359.002	401.43
359.384	404.82
359.766	405.95
360.148	388.55
360.53	395.33
360.912	399.4
361.294	390.13
361.676	382.67
362.057	381.09
362.439	397.36
362.821	392.16
363.203	398.72
363.584	385.84
363.966	372.28
364.348	378.83
364.729	368.21
365.111	390.36
365.493	393.07
365.874	392.16
366.256	362.34
366.637	373.86
367.019	382.45
367.4	383.35
367.781	380.87
368.163	384.71
368.544	372.28
368.925	398.27
369.306	365.05
369.688	393.97
370.069	396.46
370.45	395.78
370.831	386.97
371.212	383.8
371.593	391.03
371.974	386.29
372.355	381.54
372.736	372.5
373.117	403.69
373.498	393.75
373.879	390.36
374.26	386.52
374.641	404.14
375.021	380.41
375.402	404.37
375.783	403.46
376.163	405.27
376.544	408.66
376.925	432.84
377.305	412.96
377.686	437.36
378.066	428.1
378.447	429
378.827	418.6
379.208	429.23
379.588	446.17
379.968	418.38
380.349	445.95
380.729	443.91
381.109	457.93
381.489	426.51
381.87	455.21
382.25	435.1
382.63	455.21
383.01	465.61
383.39	440.75
383.77	451.82
384.15	479.85
384.53	476
384.91	462.22
385.29	483.24
385.67	472.84
386.049	470.81
386.429	494.76
386.809	482.11
387.189	502.44
387.568	481.2
387.948	465.16
388.328	511.03
388.707	495.44
389.087	512.61
389.466	514.2
389.846	486.85
390.225	505.38
390.605	500.64
390.984	535.89
391.363	530.69
391.743	501.99
392.122	512.39
392.501	537.7
392.881	527.98
393.26	523.91
393.639	542.22
394.018	532.5
394.397	541.54
394.776	546.74
395.155	558.94
395.534	548.77
395.913	582.22
396.292	556.68
396.671	590.35
397.05	577.92
397.429	578.6
397.808	573.63
398.186	590.35
398.565	565.95
398.944	592.61
399.323	590.58
399.701	589.45
400.08	602.55
400.458	612.05
400.837	601.88
401.215	629.45
401.594	611.37
401.972	627.86
402.351	617.47
402.729	608.43
403.107	638.71
403.486	642.1
403.864	636
404.242	659.28
404.62	654.98
404.999	657.24
405.377	673.74
405.755	667.86
406.133	659.95
406.511	669.22
406.889	708.77
407.267	702.89
407.645	697.69
408.023	722.78
408.401	723.23
408.779	694.98
409.156	741.99
409.534	729.78
409.912	731.14
410.29	762.32
410.667	748.31
411.045	777.24
411.422	781.99
411.8	783.57
412.178	769.33
412.555	827.86
412.933	829.67
413.31	804.13
413.687	838.48
414.065	821.53
414.442	833.51
414.819	841.19
415.197	824.24
415.574	853.4
415.951	880.06
416.328	882.77
416.705	878.25
417.082	881.87
417.46	903.34
417.837	906.05
418.214	908.99
418.591	932.04
418.967	923.9
419.344	927.52
419.721	951.7
420.098	946.05
420.475	939.95
420.852	945.37
421.228	953.73
421.605	967.29
421.982	986.95
422.358	990.34
422.735	1001.19
423.111	1016.56
423.488	1040.96
423.864	1047.29
424.241	1046.84
424.617	1038.48
424.994	1054.07
425.37	1059.04
425.746	1080.51
426.123	1089.1
426.499	1104.24
426.875	1087.29
427.251	1120.73
427.627	1131.35
428.003	1129.32
428.379	1144.46
428.756	1141.98
429.132	1174.29
429.507	1194.63
429.883	1195.31
430.259	1211.35
430.635	1230.33
431.011	1246.15
431.387	1262.2
431.763	1266.49
432.138	1292.71
432.514	1285.47
432.89	1273.5
433.265	1351.46
433.641	1315.3
434.016	1347.85
434.392	1370.67
434.767	1403.89
435.143	1415.19
435.518	1401.63
435.894	1435.53
436.269	1444.11
436.644	1439.37
437.02	1471.01
437.395	1442.98
437.77	1513.27
438.145	1490.67
438.52	1535.41
438.895	1537.67
439.271	1521.17
439.646	1561.85
440.021	1597.33
440.395	1600.04
440.77	1597.56
441.145	1554.62
441.52	1611.79
441.895	1628.52
442.27	1614.73
442.645	1637.78
443.019	1672.81
443.394	1637.1
443.769	1676.2
444.143	1630.32
444.518	1709.42
444.892	1688.85
445.267	1719.14
445.641	1695.63
446.016	1721.85
446.39	1730.43
446.764	1745.8
447.139	1738.8
447.513	1734.05
447.887	1738.12
448.262	1766.82
448.636	1813.14
449.01	1802.98
449.384	1801.39
449.758	1832.8
450.132	1865.57
450.506	1863.54
450.88	1875.97
451.254	1900.6
451.628	1911.67
452.002	1924.55
452.376	1926.81
452.75	1965.23
453.123	2025.34
453.497	2018.79
453.871	1978.56
454.244	2056.08
454.618	2087.26
454.992	2101.72
455.365	2082.97
455.739	2165.9
456.112	2157.77
456.486	2189.41
456.859	2236.86
457.232	2258.78
457.606	2254.26
457.979	2307.14
458.352	2316.63
458.725	2345.56
459.099	2345.56
459.472	2456.29
459.845	2448.61
460.218	2450.87
460.591	2513.92
460.964	2500.58
461.337	2540.58
461.71	2582.84
462.083	2659.68
462.456	2621.03
462.829	2640.69
463.201	2690.41
463.574	2675.04
463.947	2761.14
464.32	2767.02
464.692	2801.59
465.065	2776.06
465.438	2831.42
465.81	2867.58
466.183	2931.31
466.555	2967.69
466.928	2981.25
467.3	2955.04
467.672	3053.11
468.045	3065.77
468.417	3086.56
468.789	3158.65
469.161	3142.15
469.534	3217.85
469.906	3263.5
470.278	3252.88
470.65	3332.88
471.022	3385.76
471.394	3430.05
471.766	3461.91
472.138	3502.59
472.51	3599.31
472.882	3570.16
473.253	3662.81
473.625	3692.87
473.997	3717.95
474.369	3756.6
474.74	3839.31
475.112	3936.48
475.484	3953.2
475.855	4034.78
476.227	4045.18
476.598	4143.25
476.97	4140.31
477.341	4312.29
477.713	4345.51
478.084	4368.33
478.455	4441.55
478.827	4474.32
479.198	4618.49
479.569	4665.72
479.94	4777.13
480.311	4795.21
480.682	4947.98
481.053	5028.88
481.424	5145.49
481.795	5156.11
482.166	5248.31
482.537	5313.62
482.908	5419.6
483.279	5497.57
483.65	5622.08
484.021	5696.88
484.391	5798.58
484.762	5861.85
485.133	5916.54
485.503	6001.28
485.874	6118.57
486.244	6219.81
486.615	6334.38
486.985	6398.56
487.356	6499.57
487.726	6585.22
488.097	6782.73
488.467	6808.49
488.837	6943.86
489.207	6980.69
489.578	7149.73
489.948	7233.11
490.318	7333.9
490.688	7388.37
491.058	7553.33
491.428	7587.91
491.798	7726.21
492.168	7912.87
492.538	7885.53
492.908	8042.13
493.278	8126.42
493.648	8173.66
494.017	8348.34
494.387	8477.6
494.757	8514.21
495.126	8584.49
495.496	8687.31
495.866	8764.6
496.235	8794.88
496.605	8982.67
496.974	8973.63
497.344	9095.44
497.713	9177.24
498.082	9274.42
498.452	9356
498.821	9401.42
499.19	9464.92
499.559	9538.82
499.928	9588.31
500.298	9662.88
500.667	9816.55
501.036	9842.99
501.405	9951.24
501.774	9965.25
502.143	10053.83
502.512	10072.14
502.88	10160.5
503.249	10216.54
503.618	10321.17
503.987	10296.76
504.356	10384.67
504.724	10463.31
505.093	10541.05
505.462	10596.42
505.83	10657.66
506.199	10770.65
506.567	10883.64
506.936	10816.98
507.304	10974.94
507.672	11092.9
508.041	11115.95
508.409	11164.08
508.777	11265.1
509.145	11392.55
509.514	11333.57
509.882	11532.89
510.25	11511.87
510.618	11568.37
510.986	11629.16
511.354	11755.26
511.722	11844.29
512.09	11976.04
512.458	12015.59
512.826	12028.47
513.193	12195.7
513.561	12244.96
513.929	12282.25
514.297	12373.09
514.664	12481.34
515.032	12603.37
515.4	12632.52
515.767	12672.75
516.135	12743.93
516.502	12754.33
516.869	12983.25
517.237	13073.19
517.604	12996.81
517.972	13253.3
518.339	13294.65
518.706	13274.99
519.073	13404.93
519.44	13470.69
519.808	13650.12
520.175	13715.66
520.542	13851.02
520.909	13952.94
521.276	14068.42
521.643	14243.1
522.009	14238.58
522.376	14390.44
522.743	14481.06
523.11	14642.19
523.477	14839.02
523.843	14816.19
524.21	15014.38
524.577	15183.19
524.943	15239.01
525.31	15293.02
525.676	15525.78
526.043	15673.12
526.409	15713.57
526.776	15909.5
527.142	15892.32
527.508	16147.23
527.874	16224.29
528.241	16362.82
528.607	16492.08
528.973	16675.8
529.339	16708.57
529.705	16826.99
530.071	16958.28
530.437	17065.62
530.803	17327.76
531.169	17302.68
531.535	17391.94
531.901	17466.52
532.267	17607.08
532.632	17847.98
532.998	17787.87
533.364	17890.46
533.73	18083.23
534.095	18167.06
534.461	18263.33
534.826	18326.38
535.192	18485.02
535.557	18562.53
535.923	18615.41
536.288	18762.53
536.653	18805.92
537.019	18923.43
537.384	18951.45
537.749	19071.22
538.114	19095.63
538.479	19141.73
538.845	19262.4
539.21	19280.48
539.575	19366.81
539.94	19549.4
540.305	19639.57
540.67	19622.62
541.034	19695.84
541.399	19712.56
541.764	19779.23
542.129	19839.11
542.494	19968.37
542.858	20042.95
543.223	20055.83
543.587	20112.1
543.952	20191.42
544.316	20300.12
544.681	20307.12
545.045	20511.86
545.41	20593.44
545.774	20583.95
546.138	20575.36
546.503	20685.19
546.867	20823.04
547.231	20883.15
547.595	20910.27
547.959	21027.78
548.324	20991.85
548.688	21165.63
549.052	21281.79
549.416	21241.79
549.779	21328.56
550.143	21379.41
550.507	21599.06
550.871	21609.69
551.235	21603.36
551.599	21825.05
551.962	21801.77
552.326	21945.95
552.689	22061.65
553.053	21846.74
553.417	22091.26
553.78	22274.08
554.143	22259.16
554.507	22457.35
554.87	22506.16
555.234	22716.32
555.597	22676.1
555.96	22768.3
556.323	22883.78
556.686	22819.82
557.05	23077.44
557.413	23082.87
557.776	23217.78
558.139	23393.37
558.502	23545.91
558.865	23533.93
559.228	23692.8
559.59	23792.45
559.953	23796.52
560.316	24142.73
560.679	24117.64
561.041	24290.29
561.404	24401.93
561.767	24638.08
562.129	24524.41
562.492	24934.12
562.854	24815.03
563.217	25000.78
563.579	25153.77
563.941	25302.02
564.304	25462.24
564.666	25755.79
565.028	25688
565.39	25807.54
565.753	26066.07
566.115	26165.72
566.477	26276.68
566.839	26408.2
567.201	26649.55
567.563	26673.96
567.925	26871.24
568.287	26959.6
568.648	27044.57
569.01	27327.05
569.372	27513.26
569.734	27649.3
570.095	27807.26
570.457	27893.36
570.819	28072.34
571.18	28131.77
571.542	28361.82
571.903	28565.89
572.265	28689.5
572.626	28892.88
572.987	28836.39
573.349	29100.79
573.71	29334.23
574.071	29343.95
574.432	29598.85
574.794	29787.78
575.155	29809.24
575.516	29862.35
575.877	30088.56
576.238	30176.01
576.599	30360.42
576.96	30419.4
577.32	30404.26
577.681	30674.98
578.042	30913.4
578.403	31037.46
578.763	31136.44
579.124	31127.4
579.485	31461.63
579.845	31662.53
580.206	31553.15
580.566	31717.67
580.927	31868.85
581.287	32074.72
581.648	32013.48
582.008	32502.73
582.368	32525.78
582.728	32778.66
583.089	32830.63
583.449	33015.26
583.809	33290.28
584.169	33520.79
584.529	33565.76
584.889	33945.86
585.249	34040.77
585.609	34208
585.969	34426.3
586.329	34674.43
586.688	35093.4
587.048	35334.52
587.408	35597.57
587.768	35794.4
588.127	36091.79
588.487	36382.63
588.846	36995.95
589.206	37181.03
589.565	37546.44
589.925	38235.69
590.284	38331.73
590.643	38678.84
591.003	39302.33
591.362	39814.63
591.721	40093.49
592.08	40595.63
592.44	41113.13
592.799	41425.21
593.158	41940.9
593.517	42388.12
593.876	42943.59
594.235	43192.17
594.593	43803.68
594.952	44148.3
595.311	44659.93
595.67	45196.18
596.029	45883.85
596.387	46332.43
596.746	46954.1
597.104	47027.1
597.463	47508.44
597.822	48154.3
598.18	48466.61
598.538	48864.11
598.897	49514.72
599.255	49576.18
599.613	50434.01
599.972	50479.89
600.33	50976.37
600.688	51242.81
601.046	51599.86
601.404	52185.38
601.762	52377.69
602.12	52859.03
602.478	53139.03
602.836	53405.01
603.194	53531.11
603.552	53943.53
603.91	54079.57
604.268	54590.06
604.625	54703.51
604.983	55104.4
605.341	55166.54
605.698	55630.03
606.056	55980.53
606.413	56026.41
606.771	56437.02
607.128	56563.57
607.485	56752.26
607.843	56914.97
608.2	57330.55
608.557	57582.98
608.914	57620.72
609.272	57956.07
609.629	58201.04
609.986	58438.77
610.343	58482.16
610.7	58837.41
611.057	58926.9
611.414	59114.46
611.771	59304.97
612.127	59538.86
612.484	59684.17
612.841	59865.4
613.198	59879.87
613.554	60103.82
613.911	60367.09
614.267	60457.93
614.624	60579.06
614.98	60787.19
615.337	61029.89
615.693	61050
616.05	61178.14
616.406	61395.08
616.762	61368.19
617.118	61538.81
617.475	61621.74
617.831	61842.53
618.187	61955.97
618.543	62048.62
618.899	62227.15
619.255	62194.61
619.611	62263.53
619.967	62523.19
620.323	62601.15
620.678	62599.12
621.034	62712.79
621.39	62720.92
621.746	62779.9
622.101	63110.29
622.457	62932.89
622.812	63133.11
623.168	63226.22
623.523	63237.74
623.879	63335.37
624.234	63258.53
624.589	63396.84
624.945	63476.16
625.3	63502.37
625.655	63517.06
626.01	63513.67
626.365	63517.06
626.72	63517.06
627.075	63517.06
627.43	63517.06
627.785	63517.06
628.14	63517.06
628.495	63517.06
628.85	63517.06
629.205	63517.06
629.559	63517.06
629.914	63517.06
630.269	63517.06
630.623	63517.06
630.978	63517.06
631.332	63517.06
631.687	63517.06
632.041	63517.06
632.396	63517.06
632.75	63517.06
633.104	63517.06
633.459	63517.06
633.813	63517.06
634.167	63517.06
634.521	63517.06
634.875	63517.06
635.229	63517.06
635.583	63517.06
635.937	63517.06
636.291	63517.06
636.645	63517.06
636.999	63517.06
637.352	63517.06
637.706	63517.06
638.06	63517.06
638.413	63517.06
638.767	63517.06
639.121	63517.06
639.474	63517.06
639.828	63517.06
640.181	63517.06
640.534	63517.06
640.888	63517.06
641.241	63517.06
641.594	63517.06
641.947	63517.06
642.301	63517.06
642.654	63517.06
643.007	63513.22
643.36	63517.06
643.713	63517.06
644.066	63517.06
644.419	63506.89
644.771	63377.18
645.124	63124.07
645.477	63091.99
645.83	63032.33
646.182	62993.68
646.535	62987.81
646.888	63029.61
647.24	62945.1
647.593	63133.79
647.945	62972.89
648.298	62941.03
648.65	62843.63
649.002	62712.11
649.355	62653.58
649.707	62613.81
650.059	62622.84
650.411	62920.01
650.763	63035.49
651.115	63405.65
651.467	63315.71
651.819	63228.25
652.171	63199.33
652.523	63137.63
652.875	63160.23
653.227	63066.45
653.578	63236.61
653.93	63123.62
654.282	63052.21
654.633	62981.03
654.985	63012.89
655.337	63066
655.688	62998.88
656.039	63050.63
656.391	62865.32
656.742	62908.71
657.094	62942.61
657.445	62980.35
657.796	62971.76
658.147	62883.63
658.498	62897.87
658.849	62923.18
659.2	62890.86
659.551	62854.25
659.902	62908.04
660.253	62798.89
660.604	62902.61
660.955	62697.19
661.306	62831.43
661.656	62779
662.007	62778.32
662.358	62807.25
662.708	62782.16
663.059	62762.05
663.409	62639.12
663.76	62738.55
664.11	62734.71
664.461	62730.86
664.811	62754.59
665.161	62714.59
665.511	62655.39
665.862	62687.93
666.212	62718.21
666.562	62766.57
666.912	62698.55
667.262	62602.51
667.612	62708.27
667.962	62663.52
668.312	62611.32
668.662	62755.27
669.011	62681.83
669.361	62640.02
669.711	62643.18
670.06	62624.65
670.41	62612.22
670.76	62566.12
671.109	62633.01
671.459	62552.34
671.808	62670.75
672.157	62580.59
672.507	62483.19
672.856	62471.89
673.205	62530.42
673.554	62563.64
673.904	62476.63
674.253	62653.8
674.602	62544.65
674.951	62205.91
675.3	62127.72
675.649	62518.44
675.998	62476.41
676.346	62531.32
676.695	62517.54
677.044	62416.3
677.393	62476.63
677.741	62526.12
678.09	62419.46
678.438	62399.57
678.787	62423.08
679.135	62483.64
679.484	62291.1
679.832	62413.81
680.181	62269.18
680.529	62305.34
680.877	62237.54
681.225	62244.32
681.573	62374.72
681.922	62258.33
682.27	62171.56
682.618	62177.43
682.966	62188.28
683.314	62162.97
683.661	62106.25
684.009	62024.67
684.357	62018.79
684.705	61958.23
685.053	62003.88
685.4	61922.52
685.748	61864.22
686.095	61867.16
686.443	61718.69
686.79	61748.52
687.138	61794.17
687.485	61759.14
687.832	61670.55
688.18	61705.81
688.527	61605.7
688.874	61556.43
689.221	61577.45
689.568	61482.31
689.915	61441.63
690.262	61451.8
690.609	61423.55
690.956	61312.82
691.303	61321.18
691.65	61262.65
691.997	61195.31
692.344	61077.57
692.69	61073.73
693.037	61082.77
693.383	60845.04
693.73	60984.02
694.077	60850.01
694.423	60836.45
694.769	60768.88
695.116	60726.4
695.462	60705.61
695.808	60617.02
696.155	60624.71
696.501	60420.87
696.847	60506.52
697.193	60333.87
697.539	60323.92
697.885	60248.9
698.231	60155.79
698.577	60228.11
698.923	60179.29
699.269	59962.35
699.614	59899.98
699.96	59822.69
700.306	59902.24
700.651	59741.79
700.997	59688.68
701.342	59648.46
701.688	59703.83
702.033	59571.4
702.379	59529.82
702.724	59358.3
703.069	59519.65
703.415	59217.06
703.76	59223.84
704.105	59285.31
704.45	59130.06
704.795	59061.81
705.14	58928.03
705.485	59010.96
705.83	58804.87
706.175	58914.69
706.52	58767.35
706.865	58784.08
707.209	58572.56
707.554	58657.53
707.899	58621.82
708.243	58452.33
708.588	58446.23
708.932	58316.97
709.277	58343.41
709.621	58274.94
709.966	58061.61
710.31	58150.65
710.654	57993.81
710.998	58074.49
711.342	58035.85
711.687	57900.71
712.031	57862.29
712.375	57767.83
712.719	57756.53
713.063	57672.01
713.407	57848.28
713.75	57648.06
714.094	57677.66
714.438	57464.34
714.782	57518.12
715.125	57280.84
715.469	57523.54
715.812	57218.92
716.156	57160.39
716.499	57190.67
716.843	57288.97
717.186	57039.49
717.53	57200.84
717.873	57196.55
718.216	57104.12
718.559	56962.43
718.902	56804.92
719.246	56831.58
719.589	56719.27
719.932	56744.81
720.275	56788.65
720.617	56713.17
720.96	56621.42
721.303	56604.25
721.646	56641.08
721.989	56376.23
722.331	56556.11
722.674	56427.08
723.016	56388.21
723.359	56232.73
723.701	56353.18
724.044	56236.57
724.386	56112.51
724.729	56213.07
725.071	56137.14
725.413	56130.81
725.755	56084.49
726.097	55984.83
726.439	55908.9
726.782	55875.68
727.124	55989.12
727.465	55835.9
727.807	55756.36
728.149	55829.35
728.491	55737.38
728.833	55732.86
729.175	55657.15
729.516	55585.74
729.858	55549.58
730.199	55678.85
730.541	55591.17
730.882	55420.32
731.224	55454.22
731.565	55338.06
731.906	55375.8
732.248	55378.52
732.589	55228.01
732.93	55231.85
733.271	55219.2
733.612	55186.88
733.953	55328.35
734.294	55158.86
734.635	55052.87
734.976	55112.53
735.317	54926.1
735.658	54931.3
735.999	54840.68
736.339	54822.6
736.68	55007.45
737.021	54846.33
737.361	54772.2
737.702	54951.86
738.042	54717.74
738.383	54837.51
738.723	54741.7
739.063	54687.01
739.404	54721.58
739.744	54710.28
740.084	54534.92
740.424	54608.14
740.764	54495.6
741.104	54580.8
741.444	54482.95
741.784	54371.76
742.124	54399.78
742.464	54363.18
742.804	54258.09
743.143	54296.51
743.483	54267.81
743.823	54170.41
744.162	54193.69
744.502	54136.29
744.841	54083.86
745.181	54170.86
745.52	53945.56
745.86	54052.22
746.199	53948.95
746.538	53941.72
746.877	54068.04
747.216	53902.17
747.556	53851.1
747.895	53857.2
748.234	53711.67
748.573	53766.58
748.911	53599.58
749.25	53683.19
749.589	53490.43
749.928	53534.95
750.267	53515.74
750.605	53446.14
750.944	53366.37
751.283	53319.36
751.621	53356.2
751.96	53144
752.298	53096.32
752.636	53199.82
752.975	53097.9
753.313	52944.23
753.651	53124.56
753.989	52912.37
754.327	52971.35
754.666	52619.49
755.004	52787.62
755.342	52706.72
755.679	52634.86
756.017	52457.91
756.355	52610.23
756.693	52429.89
757.031	52476.9
757.368	52267.19
757.706	52340.63
758.044	52204.81
758.381	52208.43
758.719	52079.85
759.056	52066.96
759.394	51940.87
759.731	51732.28
760.068	51659.74
760.405	51711.27
760.743	51486.41
761.08	51505.4
761.417	51391.05
761.754	51294.1
762.091	51346.76
762.428	51151.28
762.765	50883.49
763.102	50979.08
763.438	50858.18
763.775	50652.54
764.112	50588.36
764.449	50611.64
764.785	50500
765.122	50191.08
765.458	50152.44
765.795	50100.91
766.131	50114.02
766.467	49924.2
766.804	49672
767.14	49513.36
767.476	49488.5
767.812	49321.73
768.148	49389.52
768.485	49306.58
768.821	48948.18
769.157	48912.92
769.492	48779.37
769.828	48615.98
770.164	48431.58
770.5	48249.44
770.836	48248.53
771.171	47996.11
771.507	48023.91
771.842	47659.62
772.178	47598.16
772.513	47360.2
772.849	47358.39
773.184	47222.35
773.519	47150.26
773.855	46864.39
774.19	46856.71
774.525	46576.04
774.86	46595.92
775.195	46472.99
775.53	46315.25
775.865	46087.69
776.2	45913.68
776.535	45691.76
776.87	45373.58
777.205	45461.94
777.539	45211.55
777.874	45322.06
778.209	44805.69
778.543	44802.75
778.878	44578.35
779.212	44619.93
779.547	44360.73
779.881	44271.24
780.215	43945.37
780.55	44134.29
780.884	43757.8
781.218	43465.61
781.552	43785.15
781.886	43344.26
782.22	43147.88
782.554	43025.85
782.888	42742.92
783.222	42606.2
783.556	42481.91
783.889	42264.96
784.223	41954.24
784.557	41993.33
784.89	42053.89
785.224	41852.54
785.557	41547.01
785.891	41384.99
786.224	41381.37
786.558	41418.66
786.891	41004.2
787.224	40842.63
787.557	40754.04
787.891	40750.2
788.224	40463.2
788.557	40382.07
788.89	40368.97
789.223	40271.12
789.556	39888.3
789.888	40005.81
790.221	39815.76
790.554	39498.03
790.887	39539.61
791.219	39223.23
791.552	39282.44
791.884	39030.02
792.217	39002.9
792.549	38777.82
792.882	38502.8
793.214	38526.53
793.546	38363.14
793.879	38296.93
794.211	37912.08
794.543	38257.16
794.875	37949.6
795.207	37987.33
795.539	37812.2
795.871	37764.06
796.203	37578.53
796.535	37482.49
796.867	37330.85
797.198	37222.83
797.53	37012.67
797.862	36812
798.193	36910.53
798.525	36783.75
798.856	36915.27
799.188	36386.7
799.519	36262.86
799.85	36088.85
800.182	36065.8
800.513	36098.12
800.844	35673.5
801.175	35844.79
801.506	35765.25
801.837	35601.63
802.168	35542.88
802.499	35580.84
802.83	35350.79
803.161	35072.38
803.491	35223.79
803.822	35199.39
804.153	34863.12
804.483	34662.22
804.814	34572.96
805.145	34649.57
805.475	34806.4
805.805	34470.82
806.136	34594.2
806.466	34278.05
806.796	34191.5
807.126	33999.42
807.457	33950.83
807.787	34023.82
808.117	33809.37
808.447	33558.98
808.777	33718.29
809.107	33444.63
809.436	33290.51
809.766	33331.64
810.096	33281.92
810.426	33178.87
810.755	33111.53
811.085	32874.7
811.414	32902.27
811.744	32776.85
812.073	32768.49
812.403	32646.68
812.732	32571.88
813.061	32669.06
813.39	32341.61
813.719	32298.9
814.049	32486.91
814.378	32267.71
814.707	32082.41
815.036	32189.07
815.365	31873.82
815.693	31727.61
816.022	31784.56
816.351	31527.39
816.68	31450.56
817.008	31693.94
817.337	31381.86
817.665	31353.84
817.994	31341.18
818.322	31401.29
818.651	31131.47
818.979	31134.86
819.307	31034.75
819.636	31072.94
819.964	30918.37
820.292	31041.08
820.62	30758.6
820.948	30865.71
821.276	31014.86
821.604	30784.13
821.932	30927.18
822.259	30875.66
822.587	30800.4
822.915	30602.67
823.243	30805.6
823.57	30565.38
823.898	30714.31
824.225	30609.22
824.553	30566.96
824.88	30691.26
825.207	30690.58
825.535	30560.64
825.862	30733.74
826.189	30590.24
826.516	30923.57
826.843	30900.74
827.17	30791.14
827.497	30743.23
827.824	30804.02
828.151	30747.52
828.478	30594.53
828.805	30895.32
829.131	30837.24
829.458	30750.46
829.785	30530.36
830.111	30674.53
830.438	30839.5
830.764	30762.67
831.09	30783.91
831.417	30606.06
831.743	30856.9
832.069	30593.63
832.395	30519.51
832.722	30643.8
833.048	30517.25
833.374	30539.39
833.7	30458.04
834.026	30589.34
834.351	30568.09
834.677	30502.79
835.003	30547.53
835.329	30371.49
835.654	30411.04
835.98	30222.57
836.306	30456.91
836.631	30219.4
836.956	30433.86
837.282	30390.25
837.607	30250.59
837.932	30161.55
838.258	30094.21
838.583	30100.76
838.908	30125.17
839.233	30006.08
839.558	29891.5
839.883	29866.64
840.208	29709.59
840.533	29894.44
840.858	29768.79
841.182	29769.02
841.507	29764.5
841.832	29574.9
842.156	29594.56
842.481	29488.57
842.805	29308.24
843.13	29240.9
843.454	29327.22
843.778	29244.06
844.103	29131.3
844.427	29061.69
844.751	29076.83
845.075	29073.44
845.399	29016.27
845.723	28792.77
846.047	28855.6
846.371	28629.84
846.695	28498.77
847.019	28326.57
847.343	28201.38
847.666	28106.69
847.99	27914.61
848.313	27836.87
848.637	27922.74
848.96	27708.28
849.284	27626.03
849.607	27469.42
849.931	27447.95
850.254	27371.34
850.577	27126.15
850.9	27087.73
851.223	26996.66
851.546	26910.34
851.869	26657.01
852.192	26907.4
852.515	26522.1
852.838	26537.01
853.161	26467.19
853.483	26193.75
853.806	26188.55
854.129	26156.91
854.451	26088.44
854.774	26009.12
855.096	25787.2
855.419	25837.37
855.741	25787.88
856.063	25625.4
856.385	25399.42
856.708	25468.79
857.03	25416.82
857.352	25383.6
857.674	25276.48
857.996	25195.81
858.318	25098.63
858.64	24988.13
858.961	24891.18
859.283	24841.69
859.605	24732.54
859.926	24768.47
860.248	24609.61
860.57	24641.92
860.891	24592.88
861.212	24471.98
861.534	24420.23
861.855	24305.43
862.176	24296.85
862.498	24467.92
862.819	24380.23
863.14	24293.23
863.461	24240.35
863.782	23990.87
864.103	24086.01
864.424	24005.33
864.745	24031.32
865.065	23887.82
865.386	23849.18
865.707	23805.56
866.027	23897.76
866.348	23660.71
866.668	23713.59
866.989	23655.73
867.309	23545
867.63	23525.57
867.95	23597.88
868.27	23400.83
868.59	23491.22
868.91	23419.58
869.23	23368.28
869.55	23257.55
869.87	23417.1
870.19	23237.89
870.51	23335.29
870.83	23290.55
871.15	23013.94
871.469	23017.33
871.789	23191.11
872.109	23097.1
872.428	23012.59
872.748	23073.6
873.067	23026.37
873.386	22906.15
873.706	22911.8
874.025	22903.21
874.344	22824.8
874.663	22794.51
874.982	22676.55
875.301	22639.04
875.62	22462.77
875.939	22526.27
876.258	22677
876.577	22418.48
876.896	22557.91
877.214	22422.77
877.533	22406.73
877.852	22375.99
878.17	22317.46
878.489	22249.67
878.807	22350.23
879.125	22272.95
879.444	22191.82
879.762	22006.74
880.08	22255.09
880.398	21951.37
880.716	22033.86
881.034	22002.9
881.352	21969.68
881.67	21794.99
881.988	21902.56
882.306	21859.4
882.624	21816.01
882.941	21648.56
883.259	21653.3
883.577	21564.26
883.894	21545.28
884.212	21433.42
884.529	21416.47
884.846	21309.13
885.164	21251.5
885.481	21115.24
885.798	21236.59
886.115	21130.6
886.432	21125.4
886.75	21143.48
887.067	21089.02
887.383	20942.81
887.7	20990.72
888.017	20793.66
888.334	20706.21
888.651	20744.62
888.967	20803.15
889.284	20689.71
889.6	20496.95
889.917	20500.34
890.233	20488.59
890.55	20470.96
890.866	20331.08
891.182	20304.41
891.498	20220.57
891.815	20126.79
892.131	20151.19
892.447	20090.18
892.763	19987.13
893.079	20029.61
893.395	19891.31
893.71	19878.43
894.026	19792.11
894.342	19763.63
894.657	19619
894.973	19589.85
895.289	19646.8
895.604	19399.57
895.92	19362.74
896.235	19390.99
896.55	19397.99
896.865	19144.44
897.181	19133.59
897.496	19198
897.811	19022.18
898.126	18880.72
898.441	18918.91
898.756	18852.92
899.071	18770.66
899.386	18796.65
899.7	18627.39
900.015	18340.85
900.33	18358.92
900.644	18418.36
900.959	18383.56
901.273	18324.8
901.588	18242.32
901.902	18130.46
902.216	18125.03
902.531	18082.1
902.845	17987.63
903.159	17819.28
903.473	17740.41
903.787	17796.23
904.101	17668.55
904.415	17690.69
904.729	17616.12
905.042	17535.22
905.356	17481.88
905.67	17384.26
905.984	17386.07
906.297	17263.13
906.611	17124.61
906.924	17099.75
907.237	17055.23
907.551	17021.33
907.864	16938.62
908.177	16889.36
908.491	16837.83
908.804	16721.45
909.117	16651.4
909.43	16474
909.743	16438.07
910.056	16415.25
910.368	16431.74
910.681	16281.46
910.994	16201.92
911.307	16222.48
911.619	16024.3
911.932	16092.77
912.244	15873.57
912.557	15967.57
912.869	15776.85
913.181	15759.67
913.494	15806
913.806	15575.49
914.118	15506.57
914.43	15535.27
914.742	15473.8
915.054	15419.79
915.366	15333.01
915.678	15205.33
915.99	15199.01
916.302	15022.51
916.613	15002.63
916.925	15008.28
917.236	14995.17
917.548	14889.86
917.859	14869.3
918.171	14811.9
918.482	14715.18
918.794	14607.38
919.105	14580.04
919.416	14498.01
919.727	14555.18
920.038	14461.17
920.349	14297.34
920.66	14247.17
920.971	14292.14
921.282	14239.26
921.593	14119.94
921.903	13982.54
922.214	13979.6
922.525	13905.26
922.835	13821.42
923.146	13864.58
923.456	13754.98
923.767	13607.41
924.077	13673.17
924.387	13589.11
924.697	13552.5
925.008	13506.85
925.318	13420.97
925.628	13262.33
925.938	13314.99
926.248	13167.87
926.558	13006.07
926.867	13018.5
927.177	13013.98
927.487	12973.53
927.796	12861.67
928.106	12876.36
928.416	12776.02
928.725	12699.86
929.034	12653.09
929.344	12670.94
929.653	12607.89
929.962	12485.41
930.271	12483.15
930.581	12468.23
930.89	12345.3
931.199	12242.02
931.508	12176.71
931.817	12168.35
932.125	12181.01
932.434	12158.41
932.743	12066.43
933.051	11970.84
933.36	11976.27
933.669	11847.46
933.977	11861.24
934.286	11810.4
934.594	11703.73
934.902	11675.48
935.21	11576.73
935.519	11531.98
935.827	11469.16
936.135	11470.29
936.443	11412.44
936.751	11327.24
937.059	11381.71
937.367	11227.36
937.674	11259.9
937.982	11185.1
938.29	11141.94
938.597	11148.94
938.905	10968.38
939.213	10959.57
939.52	10886.35
939.827	10889.29
940.135	10770.42
940.442	10756.19
940.749	10742.18
941.056	10786.24
941.363	10672.35
941.67	10619.01
941.977	10530.88
942.284	10456.76
942.591	10464.67
942.898	10501.73
943.205	10434.39
943.511	10307.61
943.818	10275.52
944.125	10146.48
944.431	10182.87
944.738	10125.92
945.044	10116.88
945.35	10061.52
945.657	10030.33
945.963	9980.61
946.269	9913.95
946.575	9911.24
946.881	9808.87
947.187	9754.86
947.493	9716.67
947.799	9712.37
948.105	9688.64
948.41	9559.83
948.716	9588.08
949.022	9523.45
949.327	9483.45
949.633	9386.28
949.938	9396.67
950.244	9390.35
950.549	9313.06
950.854	9305.15
951.16	9226.96
951.465	9207.07
951.77	9116.91
952.075	9142.22
952.38	9094.31
952.685	9005.72
952.99	8953.75
953.294	8990.81
953.599	8938.15
953.904	8826.97
954.209	8789.23
954.513	8798.72
954.818	8733.64
955.122	8713.08
955.426	8642.57
955.731	8689.8
956.035	8598.73
956.339	8524.83
956.643	8511.73
956.948	8499.75
957.252	8427.43
957.556	8391.05
957.86	8354.89
958.163	8309.24
958.467	8251.39
958.771	8287.55
959.075	8217.5
959.378	8124.62
959.682	8205.97
959.985	8074.45
960.289	8073.32
960.592	8032.64
960.896	7977.73
961.199	8020.89
961.502	7964.85
961.805	7858.64
962.108	7787.68
962.411	7870.16
962.714	7724.18
963.017	7730.73
963.32	7782.93
963.623	7659.54
963.926	7639.43
964.228	7611.18
964.531	7534.12
964.833	7558.53
965.136	7517.63
965.438	7455.71
965.741	7365.31
966.043	7394.47
966.345	7271.98
966.648	7309.95
966.95	7292.32
967.252	7270.18
967.554	7218.43
967.856	7194.47
968.158	7172.78
968.46	7164.42
968.761	7118.54
969.063	7069.96
969.365	7042.39
969.666	7030.86
969.968	6914.25
970.269	6902.95
970.571	6879.45
970.872	6867.25
971.174	6839.9
971.475	6795.39
971.776	6776.4
972.077	6744.09
972.378	6740.02
972.679	6626.58
972.98	6650.08
973.281	6635.16
973.582	6573.02
973.883	6515.17
974.183	6510.42
974.484	6509.97
974.785	6413.7
975.085	6413.25
975.386	6446.47
975.686	6343.65
975.986	6322.18
976.287	6255.74
976.587	6280.82
976.887	6246.47
977.187	6231.33
977.487	6257.1
977.787	6145.69
978.087	6130.09
978.387	6108.85
978.687	6123.77
978.987	6027.27
979.286	6032.24
979.586	5994.5
979.885	5976.42
980.185	5940.95
980.484	5897.1
980.784	5878.35
981.083	5850.1
981.382	5860.04
981.682	5812.81
981.981	5772.36
982.28	5755.41
982.579	5700.05
982.878	5698.92
983.177	5749.99
983.475	5661.18
983.774	5621.63
984.073	5549.54
984.372	5571.92
984.67	5511.8
984.969	5536.66
985.267	5498.47
985.566	5472.26
985.864	5405.82
986.162	5363.11
986.461	5402.65
986.759	5370.34
987.057	5275.2
987.355	5249.21
987.653	5259.61
987.951	5264.13
988.249	5214.41
988.547	5224.35
988.844	5126.96
989.142	5163.11
989.44	5141.87
989.737	5062.55
990.035	5079.73
990.332	5003.79
990.63	5026.62
990.927	4997.24
991.224	4984.36
991.521	4980.52
991.819	4935.32
992.116	4915.44
992.413	4900.07
992.71	4816
993.006	4830.69
993.303	4803.8
993.6	4811.94
993.897	4744.59
994.193	4745.72
994.49	4714.76
994.787	4629.12
995.083	4656.23
995.379	4619.4
995.676	4599.96
995.972	4549.34
996.268	4532.17
996.565	4571.94
996.861	4502.79
997.157	4473.87
997.453	4513.19
997.749	4471.83
998.044	4419.86
998.34	4418.95
998.636	4359.97
998.932	4378.73
999.227	4322.68
999.523	4325.62
999.818	4244.94
1000.114	4212.4
1000.409	4195
1000.704	4185.06
1001	4174.44
1001.295	4148.9
1001.59	4165.4
1001.885	4079.53
1002.18	4058.96
1002.475	4080.2
1002.77	4009.02
1003.065	4046.53
1003.359	3988.68
1003.654	3934.9
1003.949	3932.64
1004.243	3882.69
1004.538	3892.19
1004.832	3922.02
1005.127	3805.86
1005.421	3825.97
1005.715	3784.84
1006.009	3788.91
1006.304	3742.81
1006.598	3741.46
1006.892	3717.5
1007.186	3701.91
1007.48	3663.27
1007.773	3574.68
1008.067	3619.65
1008.361	3566.54
1008.655	3589.14
1008.948	3548.69
1009.242	3556.15
1009.535	3507.56
1009.829	3519.31
1010.122	3446.77
1010.415	3419.2
1010.708	3412.65
1011.001	3449.71
1011.295	3385.98
1011.588	3379.88
1011.881	3299.21
1012.173	3301.01
1012.466	3296.04
1012.759	3280.45
1013.052	3223.95
1013.344	3189.15
1013.637	3197.51
1013.93	3193.67
1014.222	3177.4
1014.514	3134.92
1014.807	3127.69
1015.099	3134.01
1015.391	3096.95
1015.683	3068.48
1015.976	3004.07
1016.268	3004.75
1016.56	3010.18
1016.851	2993.23
1017.143	2936.5
1017.435	2963.85
1017.727	2935.83
1018.018	2893.34
1018.31	2877.75
1018.602	2882.27
1018.893	2826.9
1019.185	2814.25
1019.476	2799.79
1019.767	2797.98
1020.058	2765.89
1020.35	2748.94
1020.641	2741.26
1020.932	2697.64
1021.223	2685.66
1021.514	2686.12
1021.804	2660.81
1022.095	2689.28
1022.386	2603.63
1022.677	2593.01
1022.967	2564.54
1023.258	2522.96
1023.548	2520.24
1023.839	2538.55
1024.129	2496.29
1024.419	2468.49
1024.709	2474.82
1025	2457.65
1025.29	2431.21
1025.58	2388.95
1025.87	2394.37
1026.16	2365.22
1026.449	2358.89
1026.739	2331.55
1027.029	2288.16
1027.319	2307.37
1027.608	2267.14
1027.898	2293.81
1028.187	2264.66
1028.477	2218.78
1028.766	2268.27
1029.055	2209.29
1029.344	2157.32
1029.634	2172.46
1029.923	2149.18
1030.212	2147.6
1030.501	2110.31
1030.79	2082.52
1031.078	2093.59
1031.367	2082.97
1031.656	2040.03
1031.945	2022.18
1032.233	2033.03
1032.522	2009.07
1032.81	1995.74
1033.099	1993.7
1033.387	1979.92
1033.675	1970.2
1033.963	1948.28
1034.251	1953.25
1034.54	1917.1
1034.828	1923.2
1035.116	1875.52
1035.403	1866.02
1035.691	1871.22
1035.979	1820.15
1036.267	1819.7
1036.554	1834.39
1036.842	1805.46
1037.129	1766.59
1037.417	1756.2
1037.704	1771.11
1037.992	1755.07
1038.279	1711.23
1038.566	1729.08
1038.853	1729.08
1039.14	1729.08
