Data from 485_FLMS001491_002.txt Node
Date: Thu Apr 19 16:32:09 BST 2018
User: hsy
Spectrometer: FLMS00149
Trigger mode: 0
Integration Time (sec): 1.000000E-2
Scans to average: 10
Electric dark correction enabled: true
Nonlinearity correction enabled: false
Boxcar width: 0
XAxis mode: Wavelengths
Number of Pixels in Spectrum: 2048
>>>>>Begin Spectral Data<<<<<
341.393	-6.21
341.776	-6.21
342.16	-6.21
342.543	-64.07
342.927	-70.39
343.31	-77.4
343.693	-74.46
344.077	-70.85
344.46	-64.97
344.843	-45.76
345.226	-46.89
345.61	-18.87
345.993	-13.22
346.376	7.8
346.759	-1.02
347.142	20.45
347.525	41.92
347.908	61.58
348.291	63.39
348.674	95.03
349.057	123.27
349.44	131.18
349.823	138.41
350.206	193.33
350.588	212.31
350.971	258.41
351.354	274.46
351.737	311.52
352.119	285.98
352.502	314.91
352.884	328.69
353.267	340.44
353.65	341.12
354.032	351.97
354.414	370.95
354.797	366.88
355.179	365.3
355.562	387.45
355.944	381.12
356.326	394.23
356.709	394
357.091	379.31
357.473	387
357.855	392.19
358.238	396.71
358.62	413.44
359.002	410.5
359.384	411.4
359.766	390.61
360.148	393.77
360.53	397.16
360.912	419.09
361.294	388.13
361.676	406.88
362.057	406.66
362.439	408.69
362.821	391.97
363.203	376.83
363.584	389.26
363.966	401.91
364.348	378.41
364.729	399.88
365.111	387.9
365.493	392.65
365.874	386.77
366.256	373.66
366.637	389.26
367.019	396.49
367.4	401.46
367.781	389.26
368.163	393.77
368.544	371.4
368.925	409.14
369.306	399.88
369.688	398.29
370.069	394.23
370.45	402.36
370.831	399.65
371.212	393.55
371.593	402.14
371.974	390.39
372.355	385.87
372.736	419.09
373.117	406.88
373.498	396.71
373.879	385.64
374.26	404.85
374.641	378.86
375.021	383.83
375.402	435.81
375.783	433.1
376.163	448.24
376.544	447.78
376.925	431.29
377.305	427.9
377.686	417.28
378.066	435.36
378.447	426.54
378.827	441.68
379.208	416.15
379.588	433.1
379.968	431.74
380.349	445.75
380.729	466.77
381.109	466.54
381.489	462.47
381.87	449.14
382.25	459.54
382.63	453.89
383.01	476.94
383.39	458.18
383.77	459.31
384.15	459.99
384.53	485.52
384.91	474.22
385.29	499.31
385.67	495.24
386.049	485.98
386.429	495.69
386.809	489.82
387.189	505.18
387.568	514.45
387.948	517.61
388.328	479.42
388.707	501.79
389.087	533.88
389.466	517.84
389.846	488.91
390.225	522.81
390.605	504.96
390.984	528.23
391.363	532.53
391.743	533.21
392.122	521
392.501	538.4
392.881	553.77
393.26	547.22
393.639	554.9
394.018	568.23
394.397	548.12
394.776	572.98
395.155	548.57
395.534	566.88
395.913	561.91
396.292	587.22
396.671	578.4
397.05	578.4
397.429	586.54
397.808	574.34
398.186	597.16
398.565	587.67
398.944	596.26
399.323	607.33
399.701	624.73
400.08	594.45
400.458	606.88
400.837	632.64
401.215	635.58
401.594	639.42
401.972	627.89
402.351	638.06
402.729	642.13
403.107	646.2
403.486	641.9
403.864	679.42
404.242	655.01
404.62	683.94
404.999	678.51
405.377	677.16
405.755	686.2
406.133	708.12
406.511	696.59
406.889	701.56
407.267	708.79
407.645	715.12
408.023	719.87
408.401	738.85
408.779	737.49
409.156	741.79
409.534	731.62
409.912	735.69
410.29	768
410.667	760.32
411.045	809.81
411.422	772.07
411.8	807.78
412.178	794.67
412.555	789.24
412.933	821.56
413.31	822.46
413.687	823.37
414.065	863.59
414.442	863.82
414.819	876.25
415.197	869.47
415.574	882.35
415.951	888.45
416.328	880.54
416.705	905.85
417.082	894.1
417.46	924.83
417.837	927.32
418.214	933.2
418.591	941.33
418.967	929.35
419.344	943.14
419.721	940.88
420.098	974.78
420.475	971.39
420.852	972.97
421.228	981.33
421.605	1002.12
421.982	998.5
422.358	993.31
422.735	1016.13
423.111	1035.79
423.488	1036.7
423.864	1032.18
424.241	1059.75
424.617	1068.56
424.994	1039.86
425.37	1064.04
425.746	1073.31
426.123	1073.53
426.499	1110.14
426.875	1104.72
427.251	1109.24
427.627	1146.98
428.003	1153.3
428.379	1186.07
428.756	1150.82
429.132	1182.23
429.507	1177.94
429.883	1219.74
430.259	1235.79
430.635	1252.06
431.011	1254.54
431.387	1276.46
431.763	1310.14
432.138	1316.24
432.514	1301.1
432.89	1334.32
433.265	1339.06
433.641	1372.28
434.016	1374.99
434.392	1389.91
434.767	1429.45
435.143	1424.71
435.518	1415.89
435.894	1437.82
436.269	1483.01
436.644	1496.34
437.02	1485.72
437.395	1487.76
437.77	1514.42
438.145	1549.9
438.52	1570.69
438.895	1540.19
439.271	1564.14
439.646	1598.94
440.021	1575.66
440.395	1610.47
440.77	1581.99
441.145	1639.84
441.52	1647.08
441.895	1644.36
442.27	1673.52
442.645	1646.62
443.019	1661.99
443.394	1690.69
443.769	1696.79
444.143	1666.96
444.518	1707.86
444.892	1711.93
445.267	1725.94
445.641	1758.26
446.016	1755.77
446.39	1768.88
446.764	1754.64
447.139	1768.88
447.513	1783.12
447.887	1791.25
448.262	1775.89
448.636	1798.94
449.01	1821.99
449.384	1818.14
449.758	1848.43
450.132	1897.69
450.506	1902.44
450.88	1906.28
451.254	1919.38
451.628	1905.37
452.002	1974.52
452.376	1977.69
452.75	2000.74
453.123	2014.98
453.497	2042.09
453.871	2014.98
454.244	2118.25
454.618	2111.02
454.992	2139.94
455.365	2157.12
455.739	2215.2
456.112	2195.99
456.486	2234.63
456.859	2232.6
457.232	2301.75
457.606	2324.12
457.979	2318.7
458.352	2365.25
458.725	2372.93
459.099	2411.12
459.472	2444.57
459.845	2485.02
460.218	2526.83
460.591	2494.74
460.964	2526.37
461.337	2609.76
461.71	2642.76
462.083	2660.38
462.456	2675.3
462.829	2676.65
463.201	2735.41
463.574	2695.86
463.947	2756.65
464.32	2766.82
464.692	2828.06
465.065	2835.29
465.438	2898.79
465.81	2913.26
466.183	2953.71
466.555	2987.61
466.928	3016.76
467.3	3008.85
467.672	3072.57
468.045	3171.78
468.417	3146.47
468.789	3119.35
469.161	3204.1
469.534	3255.62
469.906	3310.31
470.278	3313.47
470.65	3336.3
471.022	3371.1
471.394	3426.24
471.766	3491.55
472.138	3564.99
472.51	3572
472.882	3624.42
473.253	3674.37
473.625	3742.16
473.997	3783.06
474.369	3787.81
474.74	3882.5
475.112	3971.31
475.484	4049.5
475.855	4031.87
476.227	4124.52
476.598	4178.08
476.97	4192.09
477.341	4299.66
477.713	4363.84
478.084	4429.38
478.455	4508.24
478.827	4575.36
479.198	4712.76
479.569	4727.67
479.94	4836.6
480.311	4859.42
480.682	5004.73
481.053	5056.48
481.424	5213.76
481.795	5193.2
482.166	5376.92
482.537	5384.15
482.908	5500.08
483.279	5547.09
483.65	5691.04
484.021	5796.57
484.391	5873.18
484.762	5938.94
485.133	5978.26
485.503	6114.75
485.874	6241.53
486.244	6314.75
486.615	6411.7
486.985	6552.03
487.356	6617.11
487.726	6690.56
488.097	6818.69
488.467	6881.29
488.837	6993.6
489.207	7148.4
489.578	7225.91
489.948	7299.13
490.318	7463.19
490.688	7498.9
491.058	7658.89
491.428	7796.07
491.798	7751.1
492.168	7937.76
492.538	8079
492.908	8092.56
493.278	8256.85
493.648	8306.79
494.017	8431.98
494.387	8532.77
494.757	8562.37
495.126	8733.22
495.496	8746.78
495.866	8858.41
496.235	8945.64
496.605	9051.17
496.974	9173.66
497.344	9177.72
497.713	9259.08
498.082	9370.49
498.452	9441.22
498.821	9569.8
499.19	9589.24
499.559	9666.75
499.928	9803.47
500.298	9751.04
500.667	9888.44
501.036	9923.02
501.405	10007.31
501.774	10037.59
502.143	10155.55
502.512	10225.38
502.88	10344.25
503.249	10403
503.618	10459.5
503.987	10444.81
504.356	10619.27
504.724	10632.6
505.093	10643.9
505.462	10785.37
505.83	10808.19
506.199	10866.27
506.567	11050.9
506.936	11026.72
507.304	11123.21
507.672	11193.72
508.041	11313.94
508.409	11375.41
508.777	11461.05
509.145	11589.86
509.514	11569.75
509.882	11689.98
510.25	11663.08
510.618	11861.04
510.986	11765.23
511.354	11932
511.722	12030.76
512.09	12233.46
512.458	12110.98
512.826	12270.3
513.193	12299.45
513.561	12381.71
513.929	12499.67
514.297	12546.9
514.664	12639.33
515.032	12717.97
515.4	12793.45
515.767	12854.24
516.135	12937.63
516.502	12902.15
516.869	13195.7
517.237	13155.47
517.604	13209.94
517.972	13404.96
518.339	13534.9
518.706	13519.31
519.073	13633.65
519.44	13728.79
519.808	13922.91
520.175	13890.6
520.542	14031.61
520.909	14180.31
521.276	14212.85
521.643	14404.48
522.009	14403.8
522.376	14595.89
522.743	14719.5
523.11	15004.24
523.477	14932.6
523.843	15041.98
524.21	15284.91
524.577	15367.84
524.943	15430.22
525.31	15559.7
525.676	15772.13
526.043	15863.42
526.409	15952.69
526.776	16141.16
527.142	16289.63
527.508	16314.49
527.874	16530.53
528.241	16540.24
528.607	16643.52
528.973	16903.17
529.339	16967.12
529.705	17179.1
530.071	17252.99
530.437	17351.97
530.803	17534.34
531.169	17592.42
531.535	17692.08
531.901	17773.66
532.267	17868.34
532.632	18099.3
532.998	18142.23
533.364	18175.23
533.73	18306.07
534.095	18493.19
534.461	18537.93
534.826	18657.7
535.192	18604.14
535.557	18905.83
535.923	18829.45
536.288	18974.08
536.653	19108.09
537.019	19119.16
537.384	19242.09
537.749	19261.75
538.114	19341.75
538.479	19427.85
538.845	19583.1
539.21	19572.25
539.575	19780.84
539.94	19694.96
540.305	19904.67
540.67	19887.73
541.034	19974.28
541.399	20087.95
541.764	20099.47
542.129	20152.35
542.494	20245.46
542.858	20404.32
543.223	20279.81
543.587	20479.35
543.952	20562.96
544.316	20589.4
544.681	20547.37
545.045	20742.39
545.41	20896.51
545.774	20941.71
546.138	20897.19
546.503	20942.61
546.867	21118.88
547.231	21180.8
547.595	21157.75
547.959	21323.85
548.324	21394.8
548.688	21350.96
549.052	21525.2
549.416	21479.77
549.779	21635.25
550.143	21654.01
550.507	21748.24
550.871	21857.17
551.235	21866.43
551.599	22008.12
551.962	22070.27
552.326	22197.27
552.689	22299.64
553.053	22155.69
553.417	22244.5
553.78	22538.28
554.143	22606.07
554.507	22712.51
554.87	22830.93
555.234	23001.99
555.597	22888.78
555.96	22984.37
556.323	23237.02
556.686	23013.29
557.05	23438.59
557.413	23369.67
557.776	23492.6
558.139	23581.19
558.502	23723.11
558.865	23763.78
559.228	23900.28
559.59	24009.65
559.953	24065.92
560.316	24389.75
560.679	24466.14
561.041	24575.51
561.404	24733.93
561.767	24895.96
562.129	24842.4
562.492	25105.89
562.854	25125.33
563.217	25187.47
563.579	25314.48
563.941	25436.28
564.304	25744.29
564.666	26025.19
565.028	25966.21
565.39	26003.5
565.753	26195.58
566.115	26295.47
566.477	26495.91
566.839	26605.29
567.201	26810.03
567.563	26910.37
567.925	27172.28
568.287	27137.25
568.648	27280.07
569.01	27593.96
569.372	27781.53
569.734	27834.64
570.095	28013.84
570.457	28245.92
570.819	28398.91
571.18	28398.91
571.542	28644.78
571.903	28795.97
572.265	28907.6
572.626	29098.1
572.987	29198.89
573.349	29322.28
573.71	29531.77
574.071	29740.8
574.432	29781.48
574.794	30057.63
575.155	30115.03
575.516	30145.08
575.877	30312.54
576.238	30341.24
576.599	30671.17
576.96	30694.67
577.32	30824.16
577.681	31047.21
578.042	31221.66
578.403	31283.36
578.763	31352.96
579.124	31573.29
579.485	31793.18
579.845	31957.69
580.206	31950.91
580.566	32176.67
580.927	32304.35
581.287	32572.82
581.648	32505.92
582.008	32850.55
582.368	32963.99
582.728	33102.07
583.089	33180.48
583.449	33302.29
583.809	33663.63
584.169	33827.92
584.529	33929.84
584.889	34438.08
585.249	34407.8
585.609	34528.7
585.969	35089.59
586.329	35162.8
586.688	35665.16
587.048	35728.67
587.408	36061.31
587.768	36346.5
588.127	36767.96
588.487	37087.5
588.846	37693.81
589.206	37674.83
589.565	37906.01
589.925	38773.78
590.284	38972.2
590.643	39207.9
591.003	39705.06
591.362	40249.45
591.721	40800.85
592.08	41179.6
592.44	41717.89
592.799	42103.86
593.158	42476.06
593.517	42870.17
593.876	43343.15
594.235	43718.74
594.593	44375.9
594.952	44816.34
595.311	45164.8
595.67	45750.32
596.029	46403.86
596.387	46910.52
596.746	47357.74
597.104	47615.13
597.463	48013.99
597.822	48762.22
598.18	48934.42
598.538	49439.72
598.897	49923.32
599.255	50134.16
599.613	50837.65
599.972	50892.33
600.33	51330.97
600.688	51598.08
601.046	51920.1
601.404	52549.69
601.762	52713.08
602.12	53017.02
602.478	53433.28
602.836	53733.84
603.194	53821.07
603.552	54173.83
603.91	54393.71
604.268	54811.33
604.625	54995.73
604.983	55411.76
605.341	55386.23
605.698	55889.26
606.056	56291.74
606.413	56266.66
606.771	56674.56
607.128	56831.61
607.485	57042.45
607.843	57265.73
608.2	57537.36
608.557	57763.57
608.914	57866.39
609.272	58136.44
609.629	58431.8
609.986	58625.69
610.343	58675.86
610.7	59042.18
611.057	59103.87
611.414	59229.29
611.771	59558.55
612.127	59723.97
612.484	59875.15
612.841	60052.77
613.198	60088.25
613.554	60240.11
613.911	60512.65
614.267	60565.07
614.624	60701.79
614.98	60977.04
615.337	61145.17
615.693	61233.98
616.05	61319.63
616.406	61547.87
616.762	61590.13
617.118	61704.71
617.475	61818.15
617.831	61960.74
618.187	62043.23
618.543	62160.29
618.899	62356.21
619.255	62459.04
619.611	62460.39
619.967	62608.41
620.323	62847.05
620.678	62780.38
621.034	62794.17
621.39	62864.45
621.746	62908.29
622.101	63263.31
622.457	63091.34
622.812	63286.13
623.168	63327.26
623.523	63381.95
623.879	63468.73
624.234	63457.2
624.589	63506.69
624.945	63520.7
625.3	63522.28
625.655	63522.28
626.01	63522.28
626.365	63522.28
626.72	63522.28
627.075	63522.28
627.43	63522.28
627.785	63522.28
628.14	63522.28
628.495	63522.28
628.85	63522.28
629.205	63522.28
629.559	63522.28
629.914	63522.28
630.269	63522.28
630.623	63522.28
630.978	63522.28
631.332	63522.28
631.687	63522.28
632.041	63522.28
632.396	63522.28
632.75	63522.28
633.104	63522.28
633.459	63522.28
633.813	63522.28
634.167	63522.28
634.521	63522.28
634.875	63522.28
635.229	63522.28
635.583	63522.28
635.937	63522.28
636.291	63522.28
636.645	63522.28
636.999	63522.28
637.352	63522.28
637.706	63522.28
638.06	63522.28
638.413	63522.28
638.767	63522.28
639.121	63522.28
639.474	63522.28
639.828	63522.28
640.181	63522.28
640.534	63522.28
640.888	63522.28
641.241	63522.28
641.594	63522.28
641.947	63522.28
642.301	63522.28
642.654	63522.28
643.007	63522.28
643.36	63522.28
643.713	63522.28
644.066	63522.28
644.419	63519.8
644.771	63411.33
645.124	63207.26
645.477	63221.73
645.83	63110.32
646.182	63116.87
646.535	63056.53
646.888	63080.94
647.24	63044.33
647.593	63151.45
647.945	63050.66
648.298	62957.78
648.65	62869.42
649.002	62776.09
649.355	62791.23
649.707	62700.39
650.059	62703.55
650.411	63070.77
650.763	63127.27
651.115	63431.44
651.467	63330.88
651.819	63311.67
652.171	63285
652.523	63178.79
652.875	63232.12
653.227	63108.28
653.578	63317.54
653.93	63243.87
654.282	63152.35
654.633	63091.11
654.985	63117.1
655.337	63117.78
655.688	63055.4
656.039	63231.9
656.391	62949.19
656.742	62977.44
657.094	62995.07
657.445	62985.8
657.796	62998.68
658.147	62942.19
658.498	62968.85
658.849	63063.31
659.2	62921.4
659.551	62839.82
659.902	62980.83
660.253	62861.28
660.604	62942.41
660.955	62778.35
661.306	62970.89
661.656	62896.76
662.007	62852.25
662.358	62906.71
662.708	62840.04
663.059	62810.21
663.409	62687.05
663.76	62824.9
664.11	62817.22
664.461	62873.94
664.811	62851.12
665.161	62798.69
665.511	62740.38
665.862	62781.51
666.212	62803.43
666.562	62844.79
666.912	62780.61
667.262	62673.72
667.612	62663.78
667.962	62705.13
668.312	62637.34
668.662	62729.09
669.011	62739.71
669.361	62684.79
669.711	62727.05
670.06	62644.57
670.41	62598.69
670.76	62585.36
671.109	62714.17
671.459	62624
671.808	62600.5
672.157	62673.27
672.507	62508.53
672.856	62553.27
673.205	62594.63
673.554	62650.44
673.904	62561.18
674.253	62687.96
674.602	62551.46
674.951	62241.87
675.3	62129.1
675.649	62540.62
675.998	62504.68
676.346	62531.35
676.695	62600.5
677.044	62398.25
677.393	62435.08
677.741	62500.62
678.09	62450.9
678.438	62324.8
678.787	62522.99
679.135	62469.2
679.484	62287.74
679.832	62374.07
680.181	62307.63
680.529	62304.92
680.877	62274.41
681.225	62268.98
681.573	62404.35
681.922	62167.97
682.27	62135.65
682.618	62165.71
682.966	62172.04
683.314	62193.96
683.661	62123.23
684.009	62056.56
684.357	62020.18
684.705	61975.43
685.053	62004.58
685.4	61898.37
685.748	61879.16
686.095	61874.87
686.443	61776.12
686.79	61744.48
687.138	61778.6
687.485	61754.42
687.832	61638.27
688.18	61715.78
688.527	61677.14
688.874	61620.64
689.221	61568.44
689.568	61468.33
689.915	61427.42
690.262	61517.37
690.609	61424.71
690.956	61329.35
691.303	61344.71
691.65	61201.67
691.997	61223.36
692.344	61144.49
692.69	61014.78
693.037	61123.03
693.383	60931.17
693.73	61047.77
694.077	60881.22
694.423	60895.46
694.769	60778.4
695.116	60810.49
695.462	60729.14
695.808	60560.1
696.155	60690.72
696.501	60475.59
696.847	60480.56
697.193	60387.45
697.539	60430.16
697.885	60307.91
698.231	60201.47
698.577	60189.49
698.923	60190.85
699.269	59939.33
699.614	60019.33
699.96	59850.06
700.306	59889.16
700.651	59729.84
700.997	59719.9
701.342	59705.89
701.688	59663.4
702.033	59539.11
702.379	59514.25
702.724	59449.4
703.069	59539.56
703.415	59283.3
703.76	59223.64
704.105	59244.43
704.45	59173.47
704.795	59046.47
705.14	58895.74
705.485	58958.34
705.83	58775.52
706.175	58902.07
706.52	58762.18
706.865	58711.56
707.209	58640.38
707.554	58627.95
707.899	58615.75
708.243	58530.55
708.588	58507.28
708.932	58276.09
709.277	58422.31
709.621	58279.03
709.966	58116.78
710.31	58171.69
710.654	58006.05
710.998	58062.99
711.342	58047.4
711.687	57966.27
712.031	57854.64
712.375	57794.98
712.719	57779.84
713.063	57740.29
713.407	57791.14
713.75	57675.21
714.094	57676.11
714.438	57481.09
714.782	57498.04
715.125	57333.97
715.469	57550.92
715.812	57296.46
716.156	57239.06
716.499	57262.34
716.843	57266.4
717.186	57079.97
717.53	57158.84
717.873	57152.51
718.216	57084.04
718.559	56994.09
718.902	56774.44
719.246	56850.82
719.589	56763.14
719.932	56728.56
720.275	56663.03
720.617	56693.54
720.96	56588.91
721.303	56574.44
721.646	56604.5
721.989	56426.88
722.331	56406.99
722.674	56375.35
723.016	56465.52
723.359	56193.21
723.701	56315.24
724.044	56272.53
724.386	56095.36
724.729	56200.9
725.071	56119.99
725.413	56116.38
725.755	56007.91
726.097	55915.48
726.439	55923.16
726.782	55807.69
727.124	55912.09
727.465	55845.42
727.807	55787.12
728.149	55815.82
728.491	55669.84
728.833	55699.67
729.175	55584.41
729.516	55515.04
729.858	55592.32
730.199	55603.4
730.541	55523.17
730.882	55433.91
731.224	55462.84
731.565	55274.37
731.906	55304.87
732.248	55338.09
732.589	55191.43
732.93	55139.91
733.271	55197.08
733.612	55195.05
733.953	55241.6
734.294	55054.71
734.635	54939.23
734.976	55095.39
735.317	54938.33
735.658	54957.54
735.999	54810.42
736.339	54900.82
736.68	54846.81
737.021	54773.81
737.361	54659.92
737.702	54796.64
738.042	54717.54
738.383	54715.51
738.723	54719.35
739.063	54636.87
739.404	54624.21
739.744	54569.3
740.084	54498.57
740.424	54506.48
740.764	54504.67
741.104	54628.06
741.444	54415.63
741.784	54328.4
742.124	54353.71
742.464	54270.78
742.804	54226.48
743.143	54092.25
743.483	54184.45
743.823	54186.94
744.162	54169.31
744.502	54167.05
744.841	54019.26
745.181	54154.4
745.52	53953.04
745.86	54000.73
746.199	53892.71
746.538	53891.13
746.877	53919.83
747.216	53875.53
747.556	53693.84
747.895	53887.96
748.234	53733.62
748.573	53737.01
748.911	53603
749.25	53598.93
749.589	53393.74
749.928	53526.39
750.267	53518.25
750.605	53362.78
750.944	53391.48
751.283	53320.29
751.621	53365.04
751.96	53197.81
752.298	53232.84
752.636	53185.38
752.975	53035.1
753.313	52896.12
753.651	53120.75
753.989	52936.8
754.327	52897.93
754.666	52680.54
755.004	52885.5
755.342	52739.07
755.679	52734.77
756.017	52443.93
756.355	52571.84
756.693	52466.3
757.031	52491.39
757.368	52248.68
757.706	52255.46
758.044	52190.38
758.381	52194.9
758.719	51989.48
759.056	51937.96
759.394	51883.49
759.731	51654.8
760.068	51664.29
760.405	51579.55
760.743	51461.58
761.08	51495.48
761.417	51166.23
761.754	51140.24
762.091	51202.61
762.428	50942.05
762.765	50816.86
763.102	50810.3
763.438	50701.38
763.775	50554.04
764.112	50489.86
764.449	50393.14
764.785	50409.86
765.122	50114.05
765.458	50046.03
765.795	49940.72
766.131	49926.94
766.467	49717.68
766.804	49569.21
767.14	49387.74
767.476	49304.13
767.812	49170.8
768.148	49160.85
768.485	49070.46
768.821	48810.13
769.157	48851.48
769.492	48680.19
769.828	48580.3
770.164	48221.67
770.5	48195.68
770.836	48166.53
771.171	47985.29
771.507	47775.81
771.842	47599.99
772.178	47503.27
772.513	47399.54
772.849	47164.3
773.184	47130.85
773.519	47107.8
773.855	46735.61
774.19	46687.47
774.525	46611.99
774.86	46593.01
775.195	46386.24
775.53	46311.89
775.865	46059.69
776.2	45759.59
776.535	45624.22
776.87	45565.02
777.205	45368.41
777.539	45141.98
777.874	45295.87
778.209	44800.29
778.543	44876
778.878	44683.01
779.212	44597.36
779.547	44264.71
779.881	44413.41
780.215	44031.72
780.55	44039.86
780.884	43652.75
781.218	43650.04
781.552	43610.49
781.886	43234.91
782.22	43164.63
782.554	42971.19
782.888	42694.81
783.222	42862.94
783.556	42460.01
783.889	42281.49
784.223	41959.69
784.557	42100.25
784.89	42126.24
785.224	41833.59
785.557	41652.13
785.891	41603.99
786.224	41429.31
786.558	41357.44
786.891	41044.01
787.224	40864.58
787.557	40639.5
787.891	40568.09
788.224	40452.16
788.557	40275.21
788.89	40388.43
789.223	40252.16
789.556	39875.45
789.888	39891.04
790.221	39694.21
790.554	39491.5
790.887	39503.48
791.219	39293.09
791.552	39111.4
791.884	39043.38
792.217	38913.44
792.549	38811.97
792.882	38484.07
793.214	38514.35
793.546	38439.33
793.879	38126.34
794.211	37851.1
794.543	38047.02
794.875	37969.74
795.207	37964.09
795.539	37722.96
795.871	37738.56
796.203	37366.36
796.535	37102.87
796.867	37220.83
797.198	37051.34
797.53	36980.38
797.862	36678.92
798.193	36729.09
798.525	36627.4
798.856	36718.92
799.188	36035.1
799.519	36068.54
799.85	35921.88
800.182	35923.69
800.513	35948.77
800.844	35475.34
801.175	35837.36
801.506	35592.85
801.837	35508.11
802.168	35411.61
802.499	35394.21
802.83	35089.59
803.161	34999.42
803.491	35105.63
803.822	34977.5
804.153	34774.79
804.483	34591.52
804.814	34457.29
805.145	34592.42
805.475	34367.8
805.805	34380.9
806.136	34387.46
806.466	34154.24
806.796	34046.22
807.126	33820.69
807.457	33883.06
807.787	33894.14
808.117	33607.14
808.447	33563.3
808.777	33669.28
809.107	33300.48
809.436	33226.13
809.766	33195.17
810.096	33342.29
810.426	32996.53
810.755	33192.46
811.085	33019.13
811.414	32936.87
811.744	32587.28
812.073	32720.38
812.403	32505.47
812.732	32502.08
813.061	32499.37
813.39	32279.49
813.719	32058.48
814.049	32258.25
814.378	32208.76
814.707	32046.05
815.036	31964.92
815.365	31824.36
815.693	31505.27
816.022	31586.18
816.351	31558.61
816.68	31353.64
817.008	31463.01
817.337	31232.29
817.665	31133.08
817.994	31184.15
818.322	31346.86
818.651	31160.2
818.979	31111.39
819.307	31009.69
819.636	30989.58
819.964	30886.08
820.292	30998.85
820.62	30697.84
820.948	30920.43
821.276	31039.75
821.604	30768.12
821.932	30806.53
822.259	30696.48
822.587	30847.21
822.915	30569.7
823.243	30725.41
823.57	30703.26
823.898	30700.77
824.225	30693.09
824.553	30679.76
824.88	30753.43
825.207	30741.68
825.535	30552.08
825.862	30757.04
826.189	30716.82
826.516	30782.81
826.843	30827.78
827.17	30841.79
827.497	30756.59
827.824	30758.63
828.151	30902.58
828.478	30624.84
828.805	30823.26
829.131	30738.97
829.458	30679.53
829.785	30562.7
830.111	30653.54
830.438	30814.44
830.764	30614.9
831.09	30717.27
831.417	30558.41
831.743	30622.36
832.069	30614.45
832.395	30567.9
832.722	30642.47
833.048	30371.52
833.374	30616.94
833.7	30399.77
834.026	30461.68
834.351	30443.15
834.677	30477.73
835.003	30242.71
835.329	30361.8
835.654	30435.92
835.98	30278.41
836.306	30422.59
836.631	30117.97
836.956	30388.47
837.282	30319.99
837.607	30223.95
837.932	30129.49
838.258	29992.77
838.583	30018.76
838.908	29836.16
839.233	30035.48
839.558	29793
839.883	29803.62
840.208	29668.94
840.533	29764.75
840.858	29657.86
841.182	29750.74
841.507	29644.08
841.832	29448.83
842.156	29516.63
842.481	29405.22
842.805	29300.59
843.13	29226.69
843.454	29235.95
843.778	29124.32
844.103	29061.04
844.427	28916.64
844.751	29013.59
845.075	29012.91
845.399	28789.64
845.723	28783.76
846.047	28787.38
846.371	28581.96
846.695	28409.31
847.019	28365.24
847.343	28256.32
847.666	27983.11
847.99	27933.39
848.313	27891.58
848.637	27832.38
848.96	27881.87
849.284	27773.62
849.607	27498.15
849.931	27398.49
850.254	27287.53
850.577	27114.88
850.9	26967.77
851.223	26913.76
851.546	26904.26
851.869	26612.07
852.192	26809.8
852.515	26419.53
852.838	26410.72
853.161	26420.89
853.483	26200.55
853.806	26073.55
854.129	26041.69
854.451	26052.31
854.774	25972.54
855.096	25850.28
855.419	25706.33
855.741	25681.25
856.063	25638.53
856.385	25519.22
856.708	25477.41
857.03	25271.76
857.352	25225.66
857.674	25116.51
857.996	25108.38
858.318	24962.85
858.64	24984.54
858.961	24807.37
859.283	24815.05
859.605	24711.33
859.926	24711.33
860.248	24512.91
860.57	24509.3
860.891	24476.08
861.212	24451.22
861.534	24403.31
861.855	24403.09
862.176	24305.91
862.498	24240.38
862.819	24310.43
863.14	24108.86
863.461	24120.38
863.782	24088.29
864.103	24046.94
864.424	23981.86
864.745	24052.36
865.065	23806.94
865.386	23744.12
865.707	23767.85
866.027	23796.32
866.348	23810.33
866.668	23655.08
866.989	23589.1
867.309	23315.66
867.63	23517.46
867.95	23668.19
868.27	23464.81
868.59	23458.48
868.91	23441.76
869.23	23346.39
869.55	23110.47
869.87	23198.37
870.19	23088.09
870.51	23161.99
870.83	23045.83
871.15	22909.57
871.469	22983.46
871.789	23062.11
872.109	23016.23
872.428	22892.39
872.748	22987.53
873.067	22907.08
873.386	22874.54
873.706	22771.49
874.025	22751.15
874.344	22632.74
874.663	22724.94
874.982	22721.1
875.301	22596.81
875.62	22548.67
875.939	22408.34
876.258	22464.83
876.577	22378.06
876.896	22350.26
877.214	22349.36
877.533	22363.59
877.852	22323.14
878.17	22189.59
878.489	22312.07
878.807	22123.6
879.125	22129.93
879.444	22119.31
879.762	22024.17
880.08	22064.62
880.398	21874.34
880.716	21894.9
881.034	21930.61
881.352	22000.21
881.67	21771.07
881.988	21705.76
882.306	21732.42
882.624	21703.27
882.941	21597.96
883.259	21583.05
883.577	21581.92
883.894	21451.3
884.212	21422.83
884.529	21290.63
884.846	21299.21
885.164	21262.83
885.481	21166.34
885.798	21186.45
886.115	21080.91
886.432	21194.58
886.75	21061.93
887.067	21127.69
887.383	20935.83
887.7	20941.71
888.017	20811.77
888.334	20696.97
888.651	20631.66
888.967	20613.36
889.284	20720.92
889.6	20426.47
889.917	20468.73
890.233	20387.83
890.55	20308.73
890.866	20315.96
891.182	20235.51
891.498	20200.26
891.815	20057.89
892.131	20034.16
892.447	20031.45
892.763	19908.74
893.079	19902.87
893.395	19798.91
893.71	19772.7
894.026	19679.6
894.342	19694.51
894.657	19493.16
894.973	19536.1
895.289	19425.59
895.604	19438.92
895.92	19300.17
896.235	19250.45
896.55	19240.96
896.865	19107.18
897.181	19109.89
897.496	19080.74
897.811	18928.65
898.126	18950.8
898.441	18878.94
898.756	18756.46
899.071	18722.78
899.386	18766.63
899.7	18503.36
900.015	18321.89
900.33	18300.65
900.644	18205.51
900.959	18381.78
901.273	18248.9
901.588	18118.05
901.902	18086.42
902.216	18025.18
902.531	17914.44
902.845	17945.18
903.159	17734.34
903.473	17763.49
903.787	17682.13
904.101	17597.62
904.415	17583.38
904.729	17510.39
905.042	17335.48
905.356	17304.06
905.67	17305.19
905.984	17257.06
906.297	17216.84
906.611	17140.68
906.924	17044.86
907.237	17013.68
907.551	16948.14
907.864	16836.73
908.177	16785.66
908.491	16752.21
908.804	16698.43
909.117	16548.6
909.43	16424.99
909.743	16423.64
910.056	16398.78
910.368	16385.44
910.681	16286.92
910.994	16198.56
911.307	16090.09
911.619	15912.24
911.932	16006.7
912.244	15766.25
912.557	15808.74
912.869	15782.3
913.181	15621.62
913.494	15730.09
913.806	15589.76
914.118	15503.43
914.43	15485.58
914.742	15416.66
915.054	15272.48
915.366	15215.08
915.678	15185.48
915.99	15183.44
916.302	15089.21
916.613	14936.44
916.925	14951.13
917.236	14935.77
917.548	14815.54
917.859	14780.97
918.171	14647.86
918.482	14598.83
918.794	14533.06
919.105	14519.96
919.416	14410.36
919.727	14405.16
920.038	14388.66
920.349	14296.46
920.66	14126.97
920.971	14199.06
921.282	14146.86
921.593	14090.82
921.903	13946.64
922.214	13937.37
922.525	13874.55
922.835	13771.28
923.146	13680.21
923.456	13598.17
923.767	13545.75
924.077	13597.04
924.387	13489.02
924.697	13409.03
925.008	13404.28
925.318	13375.13
925.628	13245.87
925.938	13241.57
926.248	13132.65
926.558	13043.16
926.867	13040.67
927.177	13011.97
927.487	12879.32
927.796	12875.71
928.106	12858.31
928.416	12780.12
928.725	12664.64
929.034	12605.43
929.344	12623.96
929.653	12596.62
929.962	12423.97
930.271	12433.23
930.581	12329.05
930.89	12291.09
931.199	12250.19
931.508	12225.33
931.817	12131.32
932.125	12198.44
932.434	12006.8
932.743	11895.17
933.051	11955.5
933.36	11913.47
933.669	11839.8
933.977	11783.98
934.286	11729.07
934.594	11719.8
934.902	11677.32
935.21	11574.5
935.519	11562.07
935.827	11447.04
936.135	11353.94
936.443	11355.75
936.751	11313.71
937.059	11286.82
937.367	11271.91
937.674	11233.04
937.982	11153.94
938.29	11066.49
938.597	11040.73
938.905	10892.48
939.213	10908.75
939.52	10860.39
939.827	10880.73
940.135	10868.53
940.442	10822.88
940.749	10688.65
941.056	10731.81
941.363	10569.78
941.67	10577.24
941.977	10494.53
942.284	10454.75
942.591	10442.32
942.898	10444.36
943.205	10377.69
943.511	10279.39
943.818	10252.05
944.125	10130.02
944.431	10134.99
944.738	10094.08
945.044	10117.81
945.35	9965.5
945.657	9953.3
945.963	9928.21
946.269	9806.18
946.575	9841.44
946.881	9767.31
947.187	9735.68
947.493	9680.99
947.799	9683.02
948.105	9647.09
948.41	9534.33
948.716	9534.1
949.022	9489.58
949.327	9461.56
949.633	9365.52
949.938	9349.92
950.244	9319.19
950.549	9260.43
950.854	9198.29
951.16	9243.26
951.465	9127.56
951.77	9082.13
952.075	9100.21
952.38	9031.29
952.685	8889.82
952.99	8878.52
953.294	8910.61
953.599	8786.1
953.904	8821.8
954.209	8752.2
954.513	8817.06
954.818	8734.12
955.122	8746.1
955.426	8657.06
955.731	8616.84
956.035	8578.64
956.339	8525.31
956.643	8502.71
956.948	8384.75
957.252	8356.5
957.556	8409.84
957.86	8348.14
958.163	8307.47
958.467	8280.35
958.771	8257.52
959.075	8195.83
959.378	8131.88
959.682	8159.9
959.985	8029.05
960.289	7959.23
960.592	7992.22
960.896	7975.04
961.199	7892.79
961.502	7893.92
961.805	7804.65
962.108	7811.66
962.411	7768.04
962.714	7749.51
963.017	7693.92
963.32	7642.85
963.623	7621.83
963.926	7566.47
964.228	7561.04
964.531	7477.2
964.833	7504.1
965.136	7418.22
965.438	7389.3
965.741	7341.61
966.043	7316.08
966.345	7308.62
966.648	7272.46
966.95	7240.37
967.252	7227.27
967.554	7201.73
967.856	7145.01
968.158	7095.07
968.46	7116.08
968.761	7009.19
969.063	7028.18
969.365	6999.03
969.666	6973.04
969.968	6942.53
970.269	6852.81
970.571	6863.89
970.872	6802.42
971.174	6781.63
971.475	6786.6
971.776	6682.65
972.077	6714.51
972.378	6671.12
972.679	6615.31
972.98	6603.33
973.281	6553.39
973.582	6556.78
973.883	6552.48
974.183	6441.53
974.484	6451.24
974.785	6343.9
975.085	6377.8
975.386	6410.34
975.686	6284.47
975.986	6308.87
976.287	6284.02
976.587	6210.12
976.887	6200.18
977.187	6201.98
977.487	6199.5
977.787	6087.64
978.087	6073.4
978.387	6087.86
978.687	6054.64
978.987	6015.77
979.286	5958.6
979.586	5961.31
979.885	5964.7
980.185	5866.63
980.484	5858.04
980.784	5868.43
981.083	5801.54
981.382	5827.76
981.682	5809.9
981.981	5750.92
982.28	5748.66
982.579	5696.69
982.878	5692.62
983.177	5672.73
983.475	5623.47
983.774	5583.24
984.073	5577.37
984.372	5510.7
984.67	5536.24
984.969	5468.22
985.267	5480.87
985.566	5392.06
985.864	5389.58
986.162	5404.26
986.461	5339.41
986.759	5321.1
987.057	5239.75
987.355	5208.34
987.653	5220.99
987.951	5235.46
988.249	5225.29
988.547	5128.79
988.844	5142.8
989.142	5150.71
989.44	5101.22
989.737	5087.21
990.035	5069.13
990.332	5001.79
990.63	4966.99
990.927	4948.68
991.224	4946.65
991.521	4936.03
991.819	4899.65
992.116	4901.45
992.413	4848.12
992.71	4817.61
993.006	4774.22
993.303	4816.26
993.6	4805.18
993.897	4710.27
994.193	4760.21
994.49	4691.06
994.787	4666.2
995.083	4617.62
995.379	4573.78
995.676	4554.8
995.972	4563.38
996.268	4539.43
996.565	4514.8
996.861	4498.75
997.157	4430.96
997.453	4438.87
997.749	4406.55
998.044	4389.15
998.34	4367
998.636	4332.43
998.932	4299.21
999.227	4263.96
999.523	4309.15
999.818	4246.78
1000.114	4228.7
1000.409	4178.99
1000.704	4165.2
1001	4184.41
1001.295	4129.27
1001.59	4084.98
1001.885	4075.03
1002.18	4073.68
1002.475	4029.61
1002.77	4002.04
1003.065	3981.93
1003.359	3993
1003.654	3966.34
1003.949	3911.2
1004.243	3941.48
1004.538	3843.63
1004.832	3859.22
1005.127	3861.48
1005.421	3803.63
1005.715	3749.84
1006.009	3798.43
1006.304	3720.92
1006.598	3729.96
1006.892	3669.4
1007.186	3706.68
1007.48	3617.87
1007.773	3615.61
1008.067	3614.03
1008.361	3570.87
1008.655	3560.02
1008.948	3515.5
1009.242	3501.94
1009.535	3492.22
1009.829	3456.97
1010.122	3485.45
1010.415	3460.81
1010.708	3398.67
1011.001	3365.45
1011.295	3376.07
1011.588	3314.6
1011.881	3292.68
1012.173	3282.96
1012.466	3287.26
1012.759	3245.9
1013.052	3258.11
1013.344	3223.08
1013.637	3239.8
1013.93	3180.82
1014.222	3137.43
1014.514	3163.19
1014.807	3118.45
1015.099	3097.66
1015.391	3085
1015.683	3053.14
1015.976	3049.3
1016.268	3031.45
1016.56	2995.74
1016.851	2996.19
1017.143	2967.94
1017.435	2958.23
1017.727	2911.22
1018.018	2878.91
1018.31	2877.55
1018.602	2867.61
1018.893	2802.75
1019.185	2817.67
1019.476	2795.29
1019.767	2754.62
1020.058	2765.24
1020.35	2734.73
1020.641	2709.19
1020.932	2668.07
1021.223	2681.4
1021.514	2658.35
1021.804	2666.48
1022.095	2605.69
1022.386	2580.16
1022.677	2560.95
1022.967	2560.27
1023.258	2541.97
1023.548	2512.14
1023.839	2517.79
1024.129	2492.93
1024.419	2493.83
1024.709	2428.98
1025	2460.61
1025.29	2412.7
1025.58	2375.19
1025.87	2362.31
1026.16	2353.5
1026.449	2338.36
1026.739	2308.07
1027.029	2310.56
1027.319	2231.24
1027.608	2265.59
1027.898	2242.31
1028.187	2257.68
1028.477	2230.11
1028.766	2241.64
1029.055	2184.46
1029.344	2171.36
1029.634	2167.29
1029.923	2169.77
1030.212	2115.99
1030.501	2128.42
1030.79	2108.53
1031.078	2067.4
1031.367	2072.37
1031.656	2044.35
1031.945	2040.51
1032.233	1996.9
1032.522	2021.53
1032.81	1991.47
1033.099	1983.11
1033.387	1970.46
1033.675	1944.69
1033.963	1937.92
1034.251	1925.26
1034.54	1901.53
1034.828	1869.89
1035.116	1868.09
1035.403	1843.91
1035.691	1818.6
1035.979	1837.8
1036.267	1805.72
1036.554	1822.89
1036.842	1784.7
1037.129	1771.37
1037.417	1749.22
1037.704	1733.63
1037.992	1727.3
1038.279	1696.34
1038.566	1734.53
1038.853	1734.53
1039.14	1734.53
