Data from 485_FLMS001491_003.txt Node
Date: Thu Apr 19 16:32:12 BST 2018
User: hsy
Spectrometer: FLMS00149
Trigger mode: 0
Integration Time (sec): 1.000000E-2
Scans to average: 10
Electric dark correction enabled: true
Nonlinearity correction enabled: false
Boxcar width: 0
XAxis mode: Wavelengths
Number of Pixels in Spectrum: 2048
>>>>>Begin Spectral Data<<<<<
341.393	0.44
341.776	0.44
342.16	0.44
342.543	-86.34
342.927	-99.9
343.31	-74.59
343.693	-79.33
344.077	-87.7
344.46	-73.23
344.843	-55.38
345.226	-33.69
345.61	-34.59
345.993	-18.32
346.376	-22.61
346.759	15.35
347.142	37.27
347.525	61.23
347.908	51.06
348.291	94.45
348.674	103.49
349.057	116.59
349.44	105.75
349.823	144.16
350.206	172.41
350.588	230.26
350.971	239.75
351.354	266.65
351.737	268.91
352.119	291.96
352.502	298.06
352.884	311.16
353.267	312.52
353.65	335.34
354.032	347.55
354.414	345.51
354.797	367.43
355.179	356.13
355.562	380.77
355.944	342.58
356.326	366.3
356.709	381.44
357.091	386.87
357.473	391.16
357.855	407.88
358.238	381.67
358.62	370.15
359.002	400.88
359.384	387.77
359.766	388.68
360.148	381.44
360.53	384.61
360.912	406.75
361.294	361.56
361.676	379.64
362.057	378.73
362.439	380.54
362.821	383.48
363.203	386.19
363.584	384.83
363.966	382.12
364.348	350.03
364.729	378.28
365.111	359.75
365.493	392.07
365.874	374.44
366.256	394.55
366.637	366.08
367.019	390.94
367.4	366.98
367.781	392.74
368.163	384.38
368.544	401.11
368.925	357.72
369.306	373.08
369.688	376.25
370.069	376.25
370.45	401.56
370.831	393.42
371.212	390.94
371.593	380.54
371.974	382.35
372.355	374.89
372.736	384.83
373.117	396.81
373.498	388.22
373.879	376.25
374.26	374.21
374.641	352.74
375.021	363.82
375.402	374.67
375.783	430.03
376.163	408.79
376.544	416.25
376.925	386.42
377.305	381.44
377.686	398.39
378.066	417.38
378.447	398.39
378.827	401.11
379.208	393.87
379.588	391.84
379.968	413.99
380.349	421.22
380.729	425.74
381.109	423.48
381.489	429.58
381.87	425.74
382.25	428.22
382.63	440.88
383.01	416.25
383.39	428
383.77	431.39
384.15	444.04
384.53	436.13
384.91	430.93
385.29	445.62
385.67	473.19
386.049	455.57
386.429	436.58
386.809	427.09
387.189	472.52
387.568	467.54
387.948	479.52
388.328	474.1
388.707	475.45
389.087	490.14
389.466	494.21
389.846	494.89
390.225	504.61
390.605	491.72
390.984	512.74
391.363	491.95
391.743	504.83
392.122	508.22
392.501	509.35
392.881	533.08
393.26	487.88
393.639	498.5
394.018	526.75
394.397	529.24
394.776	515.9
395.155	521.78
395.534	537.82
395.913	529.69
396.292	540.76
396.671	537.37
397.05	536.92
397.429	526.98
397.808	532.4
398.186	527.66
398.565	551.61
398.944	549.12
399.323	538.28
399.701	532.18
400.08	549.35
400.458	568.33
400.837	551.38
401.215	566.75
401.594	584.15
401.972	585.06
402.351	566.98
402.729	592.96
403.107	578.95
403.486	599.97
403.864	592.74
404.242	592.96
404.62	607.2
404.999	613.08
405.377	602.23
405.755	624.15
406.133	632.96
406.511	631.38
406.889	629.12
407.267	634.32
407.645	636.35
408.023	626.18
408.401	649.46
408.779	662.57
409.156	676.58
409.534	638.61
409.912	682.68
410.29	696.92
410.667	711.83
411.045	710.02
411.422	708.22
411.8	724.71
412.178	724.94
412.555	736.46
412.933	743.7
413.31	751.38
413.687	760.19
414.065	757.93
414.442	754.99
414.819	759.29
415.197	754.99
415.574	770.81
415.951	803.81
416.328	805.84
416.705	786.41
417.082	820.08
417.46	811.72
417.837	802
418.214	804.48
418.591	853.97
418.967	850.81
419.344	843.35
419.721	858.95
420.098	841.09
420.475	847.65
420.852	856.91
421.228	876.12
421.605	865.5
421.982	889.91
422.358	903.01
422.735	876.57
423.111	910.92
423.488	895.78
423.864	919.96
424.241	915.67
424.617	926.06
424.994	909.34
425.37	941.2
425.746	943.01
426.123	950.92
426.499	942.33
426.875	979.85
427.251	984.59
427.627	985.95
428.003	1018.49
428.379	1020.52
428.756	1049.9
429.132	1036.79
429.507	1049
429.883	1072.05
430.259	1084.03
430.635	1077.02
431.011	1074.31
431.387	1106.85
431.763	1119.28
432.138	1105.27
432.514	1142.55
432.89	1164.48
433.265	1188.66
433.641	1185.49
434.016	1190.92
434.392	1177.13
434.767	1236.56
435.143	1210.35
435.518	1214.87
435.894	1235.21
436.269	1263.68
436.644	1281.76
437.02	1257.81
437.395	1279.95
437.77	1303.68
438.145	1324.47
438.52	1358.59
438.895	1339.39
439.271	1331.25
439.646	1387.97
440.021	1368.09
440.395	1375.32
440.77	1378.71
441.145	1383.23
441.52	1399.27
441.895	1389.1
442.27	1389.78
442.645	1400.18
443.019	1465.48
443.394	1406.73
443.769	1454.41
444.143	1437.91
444.518	1479.95
444.892	1425.71
445.267	1443.34
445.641	1500.74
446.016	1484.24
446.39	1468.42
446.764	1486.73
447.139	1491.7
447.513	1531.47
447.887	1535.09
448.262	1543.9
448.636	1574.63
449.01	1579.15
449.384	1582.32
449.758	1582.54
450.132	1614.18
450.506	1598.59
450.88	1634.97
451.254	1620.51
451.628	1643.78
452.002	1690.56
452.376	1664.35
452.75	1689.21
453.123	1711.58
453.497	1726.72
453.871	1721.75
454.244	1755.87
454.618	1796.55
454.992	1801.29
455.365	1768.53
455.739	1841.29
456.112	1868.19
456.486	1884.68
456.859	1903.21
457.232	1929.43
457.606	1965.81
457.979	1943.44
458.352	2046.03
458.725	1998.8
459.099	2042.64
459.472	2045.81
459.845	2084.22
460.218	2101.4
460.591	2115.41
460.964	2119.7
461.337	2173.04
461.71	2185.92
462.083	2195.86
462.456	2222.53
462.829	2237.22
463.201	2274.05
463.574	2312.92
463.947	2319.25
464.32	2348.62
464.692	2342.3
465.065	2409.19
465.438	2418.45
465.81	2462.75
466.183	2436.76
466.555	2486.02
466.928	2513.59
467.3	2530.09
467.672	2575.74
468.045	2617.54
468.417	2587.71
468.789	2631.1
469.161	2663.87
469.534	2671.1
469.906	2697.99
470.278	2751.55
470.65	2793.13
471.022	2813.02
471.394	2864.77
471.766	2896.86
472.138	2912.9
472.51	2986.35
472.882	3033.35
473.253	3032.9
473.625	3090.07
473.997	3151.54
474.369	3161.26
474.74	3195.38
475.112	3230.64
475.484	3243.29
475.855	3303.4
476.227	3395.83
476.598	3449.84
476.97	3467.47
477.341	3547.92
477.713	3588.14
478.084	3666.56
478.455	3730.28
478.827	3795.37
479.198	3825.42
479.569	3867.45
479.94	3947.45
480.311	4013.67
480.682	4081.01
481.053	4188.12
481.424	4231.74
481.795	4265.64
482.166	4346.09
482.537	4396.03
482.908	4471.96
483.279	4591.73
483.65	4620.88
484.021	4704.27
484.391	4792.18
484.762	4824.94
485.133	4913.53
485.503	5012.28
485.874	5059.51
486.244	5141.09
486.615	5195.33
486.985	5267.64
487.356	5428.54
487.726	5420.86
488.097	5529.78
488.467	5595.77
488.837	5698.37
489.207	5776.56
489.578	5892.26
489.948	5983.11
490.318	6041.86
490.688	6073.95
491.058	6236.66
491.428	6251.12
491.798	6399.82
492.168	6426.26
492.538	6497.89
492.908	6588.29
493.278	6661.28
493.648	6726.81
494.017	6839.35
494.387	6897.88
494.757	6952.8
495.126	7038.44
495.496	7087.48
495.866	7159.8
496.235	7260.59
496.605	7346.46
496.974	7388.49
497.344	7470.3
497.713	7602.72
498.082	7609.05
498.452	7680.46
498.821	7703.96
499.19	7707.13
499.559	7866.22
499.928	7902.38
500.298	7948.7
500.667	8021.7
501.036	7997.29
501.405	8158.64
501.774	8184.63
502.143	8235.7
502.512	8317.96
502.88	8380.1
503.249	8369.48
503.618	8483.83
503.987	8471.85
504.356	8485.64
504.724	8641.79
505.093	8630.04
505.462	8715.46
505.83	8708.68
506.199	8863.26
506.567	8888.11
506.936	8901.67
507.304	9000.65
507.672	9107.32
508.041	9133.08
508.409	9195.68
508.777	9266.41
509.145	9371.72
509.514	9399.06
509.882	9441.55
510.25	9423.47
510.618	9589.79
510.986	9552.73
511.354	9637.02
511.722	9764.93
512.09	9845.38
512.458	9773.97
512.826	9844.7
513.193	9877.92
513.561	9944.13
513.929	10003.11
514.297	10107.97
514.664	10168.53
515.032	10224.12
515.4	10339.83
515.767	10414.4
516.135	10432.03
516.502	10406.04
516.869	10531.46
517.237	10580.27
517.604	10553.61
517.972	10757.67
518.339	10836.31
518.706	10876.76
519.073	10907.95
519.44	10998.11
519.808	11093.93
520.175	11172.12
520.542	11341.83
520.909	11301.38
521.276	11429.06
521.643	11522.39
522.009	11635.84
522.376	11648.27
522.743	11708.15
523.11	11897.3
523.477	12062.27
523.843	12108.37
524.21	12206.9
524.577	12326.44
524.943	12400.34
525.31	12417.51
525.676	12669.94
526.043	12701.57
526.409	12770.72
526.776	12921
527.142	12971.85
527.508	13124.84
527.874	13200.99
528.241	13304.49
528.607	13365.51
528.973	13546.52
529.339	13525.51
529.705	13739.74
530.071	13916.23
530.437	13927.08
530.803	14000.75
531.169	14153.29
531.535	14106.51
531.901	14201.65
532.267	14318.93
532.632	14386.95
532.998	14493.39
533.364	14613.61
533.73	14640.28
534.095	14810.9
534.461	14870.1
534.826	14945.13
535.192	14962.08
535.557	15105.13
535.923	14967.28
536.288	15187.61
536.653	15257.89
537.019	15243.88
537.384	15339.92
537.749	15476.42
538.114	15560.03
538.479	15551.67
538.845	15636.18
539.21	15612.23
539.575	15677.99
539.94	15778.55
540.305	15857.65
540.67	15878.89
541.034	15937.19
541.399	16041.82
541.764	16089.05
542.129	16121.6
542.494	16181.26
542.858	16216.51
543.223	16252.67
543.587	16367.24
543.952	16386.22
544.316	16489.27
544.681	16437.75
545.045	16634.35
545.41	16695.82
545.774	16658.98
546.138	16753.44
546.503	16790.5
546.867	16858.75
547.231	16942.82
547.595	16964.96
547.959	17062.81
548.324	17107.56
548.688	17122.7
549.052	17215.58
549.416	17226.65
549.779	17371.51
550.143	17359.76
550.507	17543.48
550.871	17486.76
551.235	17465.97
551.599	17629.35
551.962	17779.86
552.326	17717.94
552.689	17850.14
553.053	17724.04
553.417	17905.73
553.78	18119.28
554.143	18074.09
554.507	18195.67
554.87	18313.4
555.234	18443.57
555.597	18294.42
555.96	18388.65
556.323	18525.6
556.686	18526.28
557.05	18693.51
557.413	18726.73
557.776	18755.65
558.139	18952.93
558.502	19041.52
558.865	19042.87
559.228	19188.86
559.59	19340.27
559.953	19333.26
560.316	19427.72
560.679	19600.83
561.041	19629.75
561.404	19836.75
561.767	19872.91
562.129	19919.01
562.492	20081.72
562.854	20212.79
563.217	20163.07
563.579	20325.78
563.941	20477.19
564.304	20595.6
564.666	20844.41
565.028	20776.39
565.39	20982.71
565.753	21094.57
566.115	21102.03
566.477	21181.8
566.839	21363.94
567.201	21604.16
567.563	21614.11
567.925	21764.84
568.287	21881.9
568.648	21937.94
569.01	22147.88
569.372	22274.88
569.734	22374.76
570.095	22477.36
570.457	22704.7
570.819	22701.99
571.18	22797.8
571.542	23071.7
571.903	23034.18
572.265	23222.2
572.626	23329.54
572.987	23455.41
573.349	23586.26
573.71	23739.47
574.071	23880.94
574.432	23996.64
574.794	24192.57
575.155	24127.94
575.516	24200.03
575.877	24380.14
576.238	24493.35
576.599	24657.87
576.96	24750.07
577.32	24778.54
577.681	24914.13
578.042	25190.51
578.403	25195.48
578.763	25284.52
579.124	25425.08
579.485	25691.74
579.845	25803.38
580.206	25761.79
580.566	25985.29
580.927	26047.44
581.287	26266.87
581.648	26254.44
582.008	26669.57
582.368	26613.3
582.728	26845.38
583.089	27066.84
583.449	27145.71
583.809	27472.03
584.169	27690.11
584.529	27648.75
584.889	28206.7
585.249	28248.06
585.609	28191.56
585.969	28796.06
586.329	28837.19
586.688	29346.56
587.048	29453
587.408	29703.84
587.768	30055.01
588.127	30410.71
588.487	30702.46
588.846	31339.95
589.206	31332.5
589.565	31807.96
589.925	32357.55
590.284	32580.37
590.643	33133.58
591.003	33400.92
591.362	34093.33
591.721	34497.16
592.08	34892.4
592.44	35441.09
592.799	35822.32
593.158	36314.96
593.517	36703.88
593.876	37285.11
594.235	37653.23
594.593	38165.31
594.952	38836.48
595.311	39123.93
595.67	39787.41
596.029	40497.23
596.387	41049.3
596.746	41588.72
597.104	42016.96
597.463	42543.27
597.822	43244.95
598.18	43560.65
598.538	44004.48
598.897	44833.61
599.255	44960.16
599.613	46079
599.972	46165.33
600.33	46720.34
600.688	47058.86
601.046	47725.74
601.404	48313.07
601.762	48645.49
602.12	49178.58
602.478	49568.85
602.836	50123.41
603.194	50173.81
603.552	50555.27
603.91	50878.2
604.268	51386.88
604.625	51658.74
604.983	52169.01
605.341	52295.56
605.698	52815.32
606.056	53223.45
606.413	53326.27
606.771	53729.42
607.128	54006.25
607.485	54212.12
607.843	54389.52
608.2	54721.71
608.557	55031.99
608.914	55206.22
609.272	55536.83
609.629	55828.57
609.986	56044.61
610.343	56254.78
610.7	56586.75
611.057	56640.98
611.414	56898.83
611.771	57119.61
612.127	57326.16
612.484	57428.98
612.841	57734.74
613.198	57778.81
613.554	57963.43
613.911	58269.87
614.267	58365
614.624	58491.1
614.98	58662.62
615.337	58938.78
615.693	59020.35
616.05	59122.73
616.406	59361.36
616.762	59436.84
617.118	59560.45
617.475	59660.34
617.831	59846.77
618.187	59963.61
618.543	60108.24
618.899	60360.88
619.255	60398.62
619.611	60448.34
619.967	60570.82
620.323	60767.43
620.678	60751.16
621.034	60832.28
621.39	60907.76
621.746	60948.67
622.101	61273.18
622.457	61105.27
622.812	61364.47
623.168	61447.41
623.523	61481.08
623.879	61567.86
624.234	61492.38
624.589	61688.31
624.945	61710.91
625.3	61762.88
625.655	61888.3
626.01	61882.88
626.365	61919.04
626.72	61937.79
627.075	61936.44
627.43	62020.5
627.785	62060.73
628.14	62142.76
628.495	62174.85
628.85	62205.81
629.205	62142.08
629.559	62337.1
629.914	62240.16
630.269	62190.67
630.623	62195.19
630.978	62166.49
631.332	62342.75
631.687	62341.62
632.041	62316.54
632.396	62367.16
632.75	62306.6
633.104	62335.52
633.459	62248.74
633.813	62296.65
634.167	62269.54
634.521	62366.71
634.875	62375.75
635.229	62326.03
635.583	62280.16
635.937	62246.48
636.291	62234.28
636.645	62258.91
636.999	62212.59
637.352	62258.46
637.706	62107.05
638.06	62257.78
638.413	62163.1
638.767	62156.77
639.121	62185.02
639.474	62091.23
639.828	62079.94
640.181	62083.55
640.534	62212.14
640.888	62049.65
641.241	61965.59
641.594	62039.26
641.947	62092.59
642.301	61950.22
642.654	62055.53
643.007	61980.5
643.36	62024.57
643.713	61962.42
644.066	62052.82
644.419	61881.97
644.771	61693.5
645.124	61460.52
645.477	61474.75
645.83	61359.05
646.182	61337.81
646.535	61264.59
646.888	61336
647.24	61258.26
647.593	61373.97
647.945	61258.04
648.298	61136.46
648.65	61082.9
649.002	61016.01
649.355	60962
649.707	60894.43
650.059	60868.22
650.411	61226.62
650.763	61290.8
651.115	61664.35
651.467	61547.52
651.819	61592.72
652.171	61451.48
652.523	61423.23
652.875	61423.91
653.227	61388.43
653.578	61528.54
653.93	61441.08
654.282	61358.15
654.633	61329.67
654.985	61361.31
655.337	61363.12
655.688	61337.58
656.039	61435.66
656.391	61205.38
656.742	61255.32
657.094	61244.25
657.445	61249.22
657.796	61307.07
658.147	61175.78
658.498	61277.24
658.849	61214.65
659.2	61199.96
659.551	61168.77
659.902	61279.96
660.253	61114.54
660.604	61171.26
660.955	61081.77
661.306	61183.69
661.656	61080.64
662.007	61106.85
662.358	61109.11
662.708	61102.56
663.059	61091.94
663.409	60923.58
663.76	61056.91
664.11	61039.51
664.461	61091.94
664.811	61074.99
665.161	61067.98
665.511	60962.45
665.862	60964.71
666.212	61000.19
666.562	61005.39
666.912	60930.36
667.262	60941.43
667.612	60956.58
667.962	60915.22
668.312	60905.05
668.662	61024.82
669.011	60930.59
669.361	60916.8
669.711	60965.16
670.06	60917.48
670.41	60846.75
670.76	60827.54
671.109	60969.68
671.459	60857.82
671.808	60914.77
672.157	60874.32
672.507	60777.82
672.856	60762.46
673.205	60817.82
673.554	60924.26
673.904	60771.5
674.253	60997.48
674.602	60815.79
674.951	60498.96
675.3	60353.88
675.649	60841.78
675.998	60778.5
676.346	60816.69
676.695	60855.56
677.044	60665.74
677.393	60703.25
677.741	60718.62
678.09	60728.11
678.438	60583.25
678.787	60720.65
679.135	60711.61
679.484	60546.42
679.832	60696.47
680.181	60590.71
680.529	60523.37
680.877	60474.55
681.225	60494.44
681.573	60678.84
681.922	60499.64
682.27	60502.58
682.618	60437.49
682.966	60446.53
683.314	60433.65
683.661	60355.01
684.009	60313.2
684.357	60221.68
684.705	60223.04
685.053	60265.75
685.4	60157.73
685.748	60070.5
686.095	60207.67
686.443	59986.66
686.79	59999.76
687.138	60107.33
687.485	60077.5
687.832	59927.9
688.18	60004.96
688.527	59811.52
688.874	59844.97
689.221	59838.19
689.568	59750.28
689.915	59618.53
690.262	59725.65
690.609	59635.03
690.956	59536.5
691.303	59576.27
691.65	59429.61
691.997	59400.68
692.344	59307.13
692.69	59276.85
693.037	59303.29
693.383	59080.47
693.73	59192.55
694.077	59063.74
694.423	59062.39
694.769	59028.72
695.116	59030.98
695.462	58827.14
695.808	58779.01
696.155	58918.66
696.501	58678.67
696.847	58722.74
697.193	58573.36
697.539	58588.05
697.885	58460.6
698.231	58375.63
698.577	58391.67
698.923	58379.92
699.269	58189.64
699.614	58163.43
699.96	58022.42
700.306	58131.56
700.651	57936.09
700.997	57945.58
701.342	57898.12
701.688	57848.63
702.033	57804.34
702.379	57772.03
702.724	57659.49
703.069	57703.33
703.415	57330.46
703.76	57342.66
704.105	57370.23
704.45	57320.51
704.795	57214.98
705.14	57112.61
705.485	57170.23
705.83	56995.55
706.175	57107.64
706.52	56980.63
706.865	56903.8
707.209	56809.57
707.554	56856.57
707.899	56782.22
708.243	56712.84
708.588	56671.72
708.932	56455
709.277	56593.3
709.621	56450.93
709.966	56243.25
710.31	56307.21
710.654	56175.23
710.998	56195.8
711.342	56165.06
711.687	56062.01
712.031	56076.48
712.375	55932.07
712.719	55869.93
713.063	55782.02
713.407	55915.35
713.75	55765.53
714.094	55783.83
714.438	55618.64
714.782	55694.79
715.125	55469.71
715.469	55651.63
715.812	55412.09
716.156	55294.13
716.499	55372.77
716.843	55335.03
717.186	55140.23
717.53	55344.52
717.873	55253
718.216	55208.7
718.559	55082.15
718.902	54894.36
719.246	54936.85
719.589	54883.74
719.932	54757.42
720.275	54747.25
720.617	54780.47
720.96	54718.32
721.303	54626.57
721.646	54739.11
721.989	54496.18
722.331	54543.18
722.674	54503.64
723.016	54517.65
723.359	54279.69
723.701	54457.76
724.044	54284.89
724.386	54107.94
724.729	54229.52
725.071	54202.4
725.413	54098.9
725.755	54006.25
726.097	54038.34
726.439	53929.87
726.782	53815.52
727.124	53981.17
727.465	53891.68
727.807	53790.66
728.149	53809.64
728.491	53724.22
728.833	53741.17
729.175	53657.33
729.516	53661.4
729.858	53549.76
730.199	53663.43
730.541	53574.17
730.882	53436.09
731.224	53392.03
731.565	53269.32
731.906	53322.65
732.248	53355.19
732.589	53213.05
732.93	53143.67
733.271	53144.13
733.612	53189.77
733.953	53290.56
734.294	53138.7
734.635	52949.55
734.976	53059.83
735.317	52945.71
735.658	52969.89
735.999	52870.46
736.339	52851.03
736.68	52897.35
737.021	52745.04
737.361	52736.68
737.702	52890.8
738.042	52652.84
738.383	52750.69
738.723	52669.79
739.063	52554.08
739.404	52702.55
739.744	52517.48
740.084	52556.8
740.424	52590.92
740.764	52395.22
741.104	52463.69
741.444	52322
741.784	52202.23
742.124	52277.93
742.464	52322.68
742.804	52102.8
743.143	52125.85
743.483	52109.12
743.823	51981.9
744.162	51930.82
744.502	51984.16
744.841	51827.55
745.181	52029.8
745.52	51749.36
745.86	51721.34
746.199	51754.78
746.538	51789.36
746.877	51795.69
747.216	51748.46
747.556	51560.44
747.895	51616.93
748.234	51519.54
748.573	51406.77
748.911	51411.74
749.25	51299.65
749.589	51111.64
749.928	51281.35
750.267	51243.61
750.605	51105.08
750.944	51102.82
751.283	50918.87
751.621	51154.8
751.96	50900.79
752.298	50888.14
752.636	50934.92
752.975	50874.58
753.313	50689.05
753.651	50788.71
753.989	50559.11
754.327	50621.03
754.666	50334.26
755.004	50473.69
755.342	50396.85
755.679	50415.38
756.017	50172.9
756.355	50175.62
756.693	50065.56
757.031	50140.81
757.368	49896.08
757.706	49960.93
758.044	49820.14
758.381	49774.72
758.719	49623.09
759.056	49673.48
759.394	49564.56
759.731	49182.65
760.068	49135.42
760.405	49205.7
760.743	48921.19
761.08	49016.1
761.417	48883.45
761.754	48715.54
762.091	48746.73
762.428	48552.61
762.765	48385.83
763.102	48362.1
763.438	48278.04
763.775	48098.16
764.112	48111.94
764.449	47838.05
764.785	47875.34
765.122	47657.04
765.458	47400.77
765.795	47375.92
766.131	47345.18
766.467	47302.7
766.804	46977.51
767.14	46770.28
767.476	46794.24
767.812	46676.5
768.148	46644.18
768.485	46593.34
768.821	46187.92
769.157	46198.32
769.492	46126.91
769.828	45922.62
770.164	45596.53
770.5	45464.78
770.836	45443.76
771.171	45210.55
771.507	45209.19
771.842	44986.83
772.178	44921.97
772.513	44793.84
772.849	44575.99
773.184	44530.57
773.519	44324.47
773.855	44084.02
774.19	43979.39
774.525	43885.16
774.86	43788.89
775.195	43723.36
775.53	43546.19
775.865	43299.64
776.2	42912.98
776.535	42836.37
776.87	42664.4
777.205	42611.07
777.539	42524.97
777.874	42378.31
778.209	42096.96
778.543	42071.42
778.878	41789.17
779.212	41802.95
779.547	41405
779.881	41521.83
780.215	41221.73
780.55	41190.09
780.884	40897.44
781.218	40768.63
781.552	40882.07
781.886	40612.48
782.22	40335.42
782.554	40313.95
782.888	39898.82
783.222	39922.55
783.556	39686.4
783.889	39553.3
784.223	39265.39
784.557	39361.89
784.89	39298.61
785.224	39123.7
785.557	38870.83
785.891	38726.2
786.224	38671.51
786.558	38639.42
786.891	38376.83
787.224	38111.98
787.557	38073.34
787.891	38049.61
788.224	37761.25
788.557	37833.57
788.89	37641.03
789.223	37578.66
789.556	37354.48
789.888	37035.62
790.221	37093.47
790.554	36966.7
790.887	36888.51
791.219	36846.47
791.552	36636.08
791.884	36508.63
792.217	36371.91
792.549	36294.62
792.882	36041.98
793.214	35889.66
793.546	35797.01
793.879	35705.49
794.211	35447.87
794.543	35681.08
794.875	35477.47
795.207	35406.74
795.539	35377.36
795.871	35387.53
796.203	35049.69
796.535	34736.93
796.867	34835
797.198	34648.57
797.53	34564.95
797.862	34262.36
798.193	34409.02
798.525	34133.33
798.856	34093.1
799.188	33853.11
799.519	33696.05
799.85	33607.69
800.182	33615.37
800.513	33670.29
800.844	33246.34
801.175	33500.57
801.506	33315.27
801.837	33110.98
802.168	33084.77
802.499	33072.79
802.83	32763.64
803.161	32659.24
803.491	32716.19
803.822	32675.96
804.153	32423.54
804.483	32308.74
804.814	32111.23
805.145	32326.59
805.475	32156.2
805.805	32081.18
806.136	32149.2
806.466	31947.85
806.796	31906.49
807.126	31710.56
807.457	31617.91
807.787	31586.27
808.117	31499.27
808.447	31271.71
808.777	31456.33
809.107	31112.84
809.436	31143.8
809.766	31087.53
810.096	30978.61
810.426	30783.81
810.755	30928.66
811.085	30809.8
811.414	30838.05
811.744	30622.01
812.073	30608.9
812.403	30411.84
812.732	30272.64
813.061	30415.91
813.39	30097.27
813.719	29995.81
814.049	30151.96
814.378	29999.65
814.707	29969.14
815.036	29933.66
815.365	29723.5
815.693	29631.98
816.022	29608.7
816.351	29480.11
816.68	29292.55
817.008	29386.11
817.337	29185.43
817.665	29158.09
817.994	29127.36
818.322	29266.11
818.651	29033.12
818.979	29002.16
819.307	28923.97
819.636	28785.9
819.964	28808.04
820.292	28749.29
820.62	28730.3
820.948	28863.41
821.276	28927.81
821.604	28765.56
821.932	28932.33
822.259	28753.35
822.587	28679.68
822.915	28588.84
823.243	28708.61
823.57	28607.6
823.898	28742.96
824.225	28598.56
824.553	28648.95
824.88	28658.22
825.207	28735.5
825.535	28564.21
825.862	28724.65
826.189	28518.78
826.516	28825.22
826.843	28746.57
827.17	28756.74
827.497	28725.11
827.824	28801.26
828.151	28839.45
828.478	28746.57
828.805	28911.09
829.131	28773.47
829.458	28713.13
829.785	28539.57
830.111	28738.89
830.438	28884.88
830.764	28738.67
831.09	28771.43
831.417	28690.76
831.743	28665.45
832.069	28690.76
832.395	28581.61
832.722	28613.47
833.048	28493.47
833.374	28525.34
833.7	28415.06
834.026	28525.34
834.351	28403.76
834.677	28537.99
835.003	28361.95
835.329	28386.81
835.654	28430.42
835.98	28186.59
836.306	28280.6
836.631	28239.02
836.956	28413.48
837.282	28282.18
837.607	28205.57
837.932	28196.31
838.258	28271.56
838.583	28063.43
838.908	28022.98
839.233	28013.71
839.558	27890.78
839.883	27929.87
840.208	27817.11
840.533	27904.34
840.858	27788.86
841.182	27776.88
841.507	27781.63
841.832	27552.03
842.156	27610.11
842.481	27648.52
842.805	27419.6
843.13	27336.89
843.454	27333.28
843.778	27274.3
844.103	27239.72
844.427	27140.52
844.751	27094.19
845.075	27020.74
845.399	27048.77
845.723	26841.31
846.047	26884.7
846.371	26653.3
846.695	26618.72
847.019	26584.37
847.343	26309.12
847.666	26378.73
847.99	26196.59
848.313	26092.63
848.637	26058.06
848.96	26051.5
849.284	25939.42
849.607	25722.7
849.931	25667.79
850.254	25523.38
850.577	25343.95
850.9	25174.47
851.223	25101.47
851.546	25154.58
851.869	24974.7
852.192	25042.94
852.515	24754.82
852.838	24619.9
853.161	24768.83
853.483	24362.06
853.806	24518.21
854.129	24395.73
854.451	24388.5
854.774	24118.9
855.096	24175.4
855.419	24013.59
855.741	23925.68
856.063	23849.53
856.385	23741.96
856.708	23785.35
857.03	23702.64
857.352	23630.55
857.674	23582.42
857.996	23466.49
858.318	23324.57
858.64	23316.66
858.961	23237.11
859.283	23260.39
859.605	23108.53
859.926	23090.68
860.248	22932.26
860.57	22930.68
860.891	22929.33
861.212	22881.64
861.534	22843.23
861.855	22736.56
862.176	22714.42
862.498	22668.77
862.819	22624.93
863.14	22602.1
863.461	22495.89
863.782	22564.36
864.103	22485.04
864.424	22360.08
864.745	22445.72
865.065	22358.27
865.386	22154.66
865.707	22315.11
866.027	22206.41
866.348	22142
866.668	22249.8
866.989	21949.47
867.309	21914.66
867.63	21995.34
867.95	21973.87
868.27	21810.71
868.59	22000.31
868.91	21827.21
869.23	21717.15
869.55	21656.59
869.87	21761
870.19	21645.97
870.51	21637.84
870.83	21681
871.15	21510.15
871.469	21545.63
871.789	21443.04
872.109	21499.53
872.428	21348.58
872.748	21415.24
873.067	21384.51
873.386	21350.61
873.706	21343.61
874.025	21161.92
874.344	21134.12
874.663	21199.2
874.982	21186.55
875.301	21162.59
875.62	20984.52
875.939	21028.13
876.258	21066.78
876.577	20839.21
876.896	20878.53
877.214	20855.48
877.533	20858.65
877.852	20796.05
878.17	20794.02
878.489	20716.96
878.807	20744.3
879.125	20692.32
879.444	20623.85
879.762	20551.31
880.08	20610.97
880.398	20449.62
880.716	20612.33
881.034	20326.68
881.352	20438.54
881.67	20314.93
881.988	20300.47
882.306	20215.73
882.624	20288.04
882.941	20085.33
883.259	20218.44
883.577	20055.05
883.894	20050.31
884.212	19952.91
884.529	19937.31
884.846	19856.64
885.164	19887.6
885.481	19725.57
885.798	19789.3
886.115	19579.81
886.432	19792.69
886.75	19645.35
887.067	19684.67
887.383	19538
887.7	19536.87
888.017	19405.35
888.334	19374.84
888.651	19338.46
888.967	19172.14
889.284	19172.14
889.6	19107.28
889.917	19124.23
890.233	19163.1
890.55	18998.36
890.866	18987.51
891.182	18829.77
891.498	18789.55
891.815	18697.35
892.131	18719.95
892.447	18672.49
892.763	18644.24
893.079	18588.2
893.395	18483.57
893.71	18510.23
894.026	18460.29
894.342	18377.81
894.657	18236.12
894.973	18220.3
895.289	18179.17
895.604	18151.15
895.92	18034.09
896.235	17984.15
896.55	18026.63
896.865	17975.78
897.181	17846.97
897.496	17868.67
897.811	17695.34
898.126	17623.48
898.441	17620.99
898.756	17655.79
899.071	17400.88
899.386	17550.03
899.7	17383.94
900.015	17321.56
900.33	17138.29
900.644	17110.95
900.959	17221.45
901.273	17127.9
901.588	17106.88
901.902	16962.48
902.216	16813.56
902.531	16805.65
902.845	16726.55
903.159	16538.76
903.473	16617.85
903.787	16539.44
904.101	16518.42
904.415	16524.3
904.729	16360.23
905.042	16398.2
905.356	16317.97
905.67	16143.74
905.984	16336.73
906.297	16196.85
906.611	15982.84
906.924	15997.76
907.237	15900.81
907.551	15901.71
907.864	15814.26
908.177	15833.92
908.491	15682.96
908.804	15595.28
909.117	15493.36
909.43	15375.4
909.743	15314.16
910.056	15370.66
910.368	15279.58
910.681	15180.38
910.994	15096.76
911.307	15127.95
911.619	14993.94
911.932	15049.76
912.244	14833.04
912.557	14861.74
912.869	14750.11
913.181	14701.75
913.494	14685.02
913.806	14574.29
914.118	14501.98
914.43	14465.14
914.742	14454.07
915.054	14257.46
915.366	14325.71
915.678	14251.36
915.99	14174.08
916.302	14083.68
916.613	14058.15
916.925	14035.78
917.236	13996.23
917.548	13883.24
917.859	13898.15
918.171	13780.87
918.482	13710.81
918.794	13652.28
919.105	13685.95
919.416	13536.35
919.727	13545.17
920.038	13547.2
920.349	13350.82
920.66	13275.34
920.971	13294.78
921.282	13214.1
921.593	13125.29
921.903	12987.89
922.214	13128.68
922.525	12952.87
922.835	12976.37
923.146	12894.11
923.456	12799.2
923.767	12819.31
924.077	12725.98
924.387	12677.84
924.697	12633.33
925.008	12582.71
925.318	12446.66
925.628	12445.53
925.938	12407.57
926.248	12291.87
926.558	12268.36
926.867	12242.15
927.177	12104.07
927.487	12122.83
927.796	12082.83
928.106	12029.5
928.416	12018.88
928.725	11904.98
929.034	11909.5
929.344	11821.6
929.653	11750.19
929.962	11700.7
930.271	11558.33
930.581	11569.4
930.89	11509.97
931.199	11447.82
931.508	11408.5
931.817	11379.35
932.125	11403.08
932.434	11348.84
932.743	11164.89
933.051	11174.83
933.36	11125.34
933.669	11155.62
933.977	11033.82
934.286	10971.67
934.594	10860.72
934.902	10858.23
935.21	10865.46
935.519	10782.98
935.827	10779.36
936.135	10640.61
936.443	10679.93
936.751	10627.73
937.059	10588.63
937.367	10521.97
937.674	10489.43
937.982	10445.81
938.29	10391.35
938.597	10410.33
938.905	10266.61
939.213	10229.55
939.52	10232.49
939.827	10185.71
940.135	10072.94
940.442	10041.76
940.749	10028.42
941.056	10070.91
941.363	9893.06
941.67	9877.69
941.977	9878.37
942.284	9779.39
942.591	9748.88
942.898	9799.95
943.205	9711.14
943.511	9623.24
943.818	9637.92
944.125	9557.25
944.431	9528.1
944.738	9488.32
945.044	9440.87
945.35	9427.31
945.657	9375.56
945.963	9322.45
946.269	9272.96
946.575	9218.95
946.881	9213.75
947.187	9092.4
947.493	9108.67
947.799	9089.01
948.105	9002.91
948.41	9023.93
948.716	8984.38
949.022	8898.73
949.327	8856.02
949.633	8726.08
949.938	8763.37
950.244	8757.5
950.549	8734.22
950.854	8652.87
951.16	8605.86
951.465	8576.26
951.77	8512.3
952.075	8519.31
952.38	8490.16
952.685	8451.52
952.99	8280.45
953.294	8344.63
953.599	8359.09
953.904	8228.02
954.209	8207.91
954.513	8284.29
954.818	8195.25
955.122	8108.25
955.426	8048.59
955.731	8005.65
956.035	7948.7
956.339	8050.4
956.643	7910.29
956.948	7823.73
957.252	7843.62
957.556	7861.02
957.86	7772.89
958.163	7733.57
958.467	7751.87
958.771	7706
959.075	7686.56
959.378	7616.06
959.682	7632.78
959.985	7549.84
960.289	7463.74
960.592	7459.9
960.896	7440.69
961.199	7443.41
961.502	7440.24
961.805	7343.97
962.108	7337.19
962.411	7296.52
962.714	7264.65
963.017	7144.88
963.32	7142.17
963.623	7153.24
963.926	7126.58
964.228	7035.96
964.531	7033.02
964.833	7065.11
965.136	6989.63
965.438	6971.33
965.741	6877.32
966.043	6893.36
966.345	6819.92
966.648	6803.42
966.95	6847.49
967.252	6733.82
967.554	6793.03
967.856	6681.17
968.158	6634.84
968.46	6561.85
968.761	6601.62
969.063	6607.04
969.365	6484.34
969.666	6482.53
969.968	6473.49
970.269	6421.96
970.571	6441.4
970.872	6425.81
971.174	6316.43
971.475	6317.33
971.776	6349.65
972.077	6286.83
972.378	6249.31
972.679	6236.88
972.98	6191.69
973.281	6155.3
973.582	6173.83
973.883	6183.33
974.183	6066.94
974.484	6059.71
974.785	5953.95
975.085	5947.4
975.386	6039.38
975.686	5979.04
975.986	5922.09
976.287	5866.05
976.587	5816.78
976.887	5806.16
977.187	5887.51
977.487	5806.39
977.787	5746.73
978.087	5698.82
978.387	5671.7
978.687	5690.23
978.987	5637.8
979.286	5597.58
979.586	5606.62
979.885	5567.52
980.185	5533.4
980.484	5468.32
980.784	5471.48
981.083	5416.34
981.382	5454.31
981.682	5435.32
981.981	5423.8
982.28	5386.06
982.579	5313.97
982.878	5338.15
983.177	5274.2
983.475	5317.36
983.774	5212.05
984.073	5188.32
984.372	5192.17
984.67	5154.2
984.969	5173.86
985.267	5160.75
985.566	5155.33
985.864	5101.09
986.162	5031.49
986.461	5027.65
986.759	5000.76
987.057	4965.51
987.355	4937.71
987.653	4901.33
987.951	4852.06
988.249	4910.82
988.547	4879.41
988.844	4810.93
989.142	4789.92
989.44	4734.32
989.737	4761.89
990.035	4728.9
990.332	4715.12
990.63	4656.81
990.927	4678.51
991.224	4614.78
991.521	4642.8
991.819	4657.04
992.116	4551.73
992.413	4575.91
992.71	4533.88
993.006	4492.98
993.303	4514.9
993.6	4446.65
993.897	4453.88
994.193	4455.69
994.49	4419.98
994.787	4376.82
995.083	4347.44
995.379	4326.43
995.676	4328.01
995.972	4304.73
996.268	4247.56
996.565	4250.5
996.861	4245.75
997.157	4228.58
997.453	4155.36
997.749	4128.46
998.044	4096.83
998.34	4115.58
998.636	4056.38
998.932	4056.15
999.227	4064.06
999.523	4023.61
999.818	4002.82
1000.114	3948.58
1000.409	3954.68
1000.704	3924.18
1001	3899.77
1001.295	3842.14
1001.59	3782.94
1001.885	3833.78
1002.18	3833.78
1002.475	3841.69
1002.77	3747.23
1003.065	3767.57
1003.359	3731.87
1003.654	3689.61
1003.949	3666.33
1004.243	3654.13
1004.538	3631.98
1004.832	3578.42
1005.127	3608.93
1005.421	3585.65
1005.715	3536.84
1006.009	3520.35
1006.304	3557.63
1006.598	3483.74
1006.892	3505.43
1007.186	3454.13
1007.48	3424.75
1007.773	3377.75
1008.067	3376.17
1008.361	3388.15
1008.655	3328.26
1008.948	3348.37
1009.242	3347.69
1009.535	3307.02
1009.829	3253.46
1010.122	3243.29
1010.415	3245.32
1010.708	3188.83
1011.001	3174.14
1011.295	3174.59
1011.588	3172.11
1011.881	3120.81
1012.173	3112.9
1012.466	3133.24
1012.759	3093.46
1013.052	3067.02
1013.344	3026.57
1013.637	3010.3
1013.93	2990.64
1014.222	2997.42
1014.514	2970.76
1014.807	2975.95
1015.099	2901.6
1015.391	2928.72
1015.683	2879.01
1015.976	2872.45
1016.268	2826.8
1016.56	2835.39
1016.851	2813.02
1017.143	2787.94
1017.435	2754.04
1017.727	2772.79
1018.018	2755.39
1018.31	2727.82
1018.602	2693.25
1018.893	2675.85
1019.185	2663.87
1019.476	2653.48
1019.767	2625.68
1020.058	2630.2
1020.35	2567.38
1020.641	2578
1020.932	2549.98
1021.223	2514.27
1021.514	2524.44
1021.804	2514.95
1022.095	2491.22
1022.386	2459.13
1022.677	2442.86
1022.967	2413.03
1023.258	2366.93
1023.548	2379.81
1023.839	2364.9
1024.129	2363.54
1024.419	2328.29
1024.709	2341.39
1025	2311.56
1025.29	2295.29
1025.58	2272.02
1025.87	2269.98
1026.16	2217.55
1026.449	2228.63
1026.739	2206.03
1027.029	2213.71
1027.319	2189.76
1027.608	2170.32
1027.898	2139.59
1028.187	2134.62
1028.477	2097.33
1028.766	2134.17
1029.055	2059.14
1029.344	2081.06
1029.634	2059.37
1029.923	2045.13
1030.212	2011.68
1030.501	2023.44
1030.79	2005.13
1031.078	1954.96
1031.367	1965.81
1031.656	1937.79
1031.945	1889.2
1032.233	1909.77
1032.522	1890.33
1032.81	1903.89
1033.099	1890.56
1033.387	1898.69
1033.675	1860.5
1033.963	1852.37
1034.251	1811.69
1034.54	1804.01
1034.828	1774.4
1035.116	1757.45
1035.403	1756.1
1035.691	1754.29
1035.979	1748.64
1036.267	1733.5
1036.554	1689.88
1036.842	1679.94
1037.129	1688.53
1037.417	1673.61
1037.704	1652.82
1037.992	1658.47
1038.279	1635.65
1038.566	1640.85
1038.853	1640.85
1039.14	1640.85
