Data from 5405_FLMS001491_007.txt Node
Date: Thu Apr 19 16:38:24 BST 2018
User: hsy
Spectrometer: FLMS00149
Trigger mode: 0
Integration Time (sec): 1.000000E-2
Scans to average: 10
Electric dark correction enabled: true
Nonlinearity correction enabled: false
Boxcar width: 0
XAxis mode: Wavelengths
Number of Pixels in Spectrum: 2048
>>>>>Begin Spectral Data<<<<<
341.393	15.97
341.776	15.97
342.16	15.97
342.543	-53.18
342.927	-58.15
343.31	-87.98
343.693	-59.28
344.077	-83.23
344.46	-69.22
344.843	-50.24
345.226	-27.64
345.61	-25.38
345.993	-17.7
346.376	-3.46
346.759	1.74
347.142	19.82
347.525	50.1
347.908	64.79
348.291	80.61
348.674	93.94
349.057	113.15
349.44	155.41
349.823	149.53
350.206	178.46
350.588	221.17
350.971	237.44
351.354	222.52
351.737	265.46
352.119	271.11
352.502	286.48
352.884	308.62
353.267	298
353.65	316.08
354.032	312.92
354.414	348.62
354.797	321.28
355.179	357.21
355.562	360.82
355.944	375.96
356.326	340.71
356.709	338.9
357.091	337.32
357.473	350.88
357.855	369.19
358.238	364.44
358.62	356.98
359.002	373.7
359.384	369.64
359.766	351.56
360.148	362.18
360.53	363.31
360.912	373.7
361.294	385.46
361.676	371.45
362.057	365.57
362.439	357.43
362.821	326.47
363.203	379.58
363.584	362.63
363.966	360.82
364.348	344.1
364.729	374.16
365.111	323.08
365.493	353.82
365.874	350.2
366.256	359.92
366.637	340.94
367.019	346.13
367.4	350.88
367.781	354.27
368.163	358.11
368.544	329.86
368.925	344.1
369.306	361.73
369.688	357.43
370.069	361.73
370.45	351.33
370.831	373.93
371.212	364.67
371.593	371.22
371.974	359.69
372.355	347.72
372.736	356.98
373.117	353.82
373.498	364.67
373.879	355.17
374.26	364.89
374.641	356.98
375.021	371.9
375.402	368.51
375.783	386.59
376.163	369.19
376.544	395.85
376.925	378.68
377.305	375.96
377.686	380.71
378.066	378
378.447	396.08
378.827	372.57
379.208	420.71
379.588	382.74
379.968	396.53
380.349	408.51
380.729	413.48
381.109	387.72
381.489	413.7
381.87	399.47
382.25	397.89
382.63	440.14
383.01	408.73
383.39	404.21
383.77	431.33
384.15	428.39
384.53	446.25
384.91	435.17
385.29	438.79
385.67	409.18
386.049	441.95
386.429	444.66
386.809	424.78
387.189	456.19
387.568	431.56
387.948	449.64
388.328	460.26
388.707	467.49
389.087	475.62
389.466	465
389.846	462.74
390.225	476.08
390.605	457.77
390.984	469.97
391.363	475.85
391.743	458.45
392.122	498
392.501	496.19
392.881	502.29
393.26	495.74
393.639	500.03
394.018	477.43
394.397	510.42
394.776	518.11
395.155	534.15
395.534	498.45
395.913	530.31
396.292	539.8
396.671	538.45
397.05	518.79
397.429	524.66
397.808	543.64
398.186	530.99
398.565	548.39
398.944	573.7
399.323	544.77
399.701	574.38
400.08	554.04
400.458	576.86
400.837	575.96
401.215	567.82
401.594	573.25
401.972	582.06
402.351	579.12
402.729	584.32
403.107	581.38
403.486	584.32
403.864	580.71
404.242	600.37
404.62	608.27
404.999	628.16
405.377	606.47
405.755	635.84
406.133	639.91
406.511	635.17
406.889	638.56
407.267	665.22
407.645	647.6
408.023	666.13
408.401	679.23
408.779	699.35
409.156	709.06
409.534	688.27
409.912	703.41
410.29	717.65
410.667	729.63
411.045	720.81
411.422	733.02
411.8	742.96
412.178	735.96
412.555	751.32
412.933	773.02
413.31	775.28
413.687	772.79
414.065	803.75
414.442	785.67
414.819	815.28
415.197	853.01
415.574	848.49
415.951	833.35
416.328	856.18
416.705	864.77
417.082	841.49
417.46	856.63
417.837	864.31
418.214	893.69
418.591	879.68
418.967	869.51
419.344	896.63
419.721	905.89
420.098	917.42
420.475	907.48
420.852	904.76
421.228	920.13
421.605	950.64
421.982	941.37
422.358	942.05
422.735	957.87
423.111	968.27
423.488	991.77
423.864	983.63
424.241	1003.97
424.617	1013.01
424.994	1010.75
425.37	1044.65
425.746	1041.48
426.123	1033.8
426.499	1059.79
426.875	1093.01
427.251	1063.4
427.627	1108.6
428.003	1099.34
428.379	1146.34
428.756	1141.37
429.132	1174.14
429.507	1167.13
429.883	1198.09
430.259	1178.43
430.635	1180.46
431.011	1228.15
431.387	1205.32
431.763	1262.95
432.138	1294.13
432.514	1310.86
432.89	1289.61
433.265	1331.19
433.641	1314.02
434.016	1344.3
434.392	1377.75
434.767	1382.49
435.143	1385.43
435.518	1387.92
435.894	1413.45
436.269	1431.08
436.644	1458.42
437.02	1460.23
437.395	1446.22
437.77	1459.1
438.145	1516.27
438.52	1512.21
438.895	1558.76
439.271	1525.31
439.646	1586.33
440.021	1580.45
440.395	1579.77
440.77	1584.52
441.145	1593.33
441.52	1631.75
441.895	1630.39
442.27	1624.07
442.645	1665.2
443.019	1656.83
443.394	1705.87
443.769	1687.57
444.143	1674.46
444.518	1714.91
444.892	1662.48
445.267	1737.28
445.641	1724.63
446.016	1736.38
446.39	1754.23
446.764	1771.41
447.139	1735.48
447.513	1779.09
447.887	1790.84
448.262	1793.1
448.636	1819.99
449.01	1849.15
449.384	1862.03
449.758	1855.02
450.132	1881.01
450.506	1883.95
450.88	1920.1
451.254	1881.01
451.628	1943.61
452.002	1956.94
452.376	2009.59
452.75	2007.79
453.123	1991.74
453.497	2045.3
453.871	2025.19
454.244	2119.65
454.618	2090.27
454.992	2127.78
455.365	2121.68
455.739	2204.39
456.112	2188.12
456.486	2230.83
456.859	2269.7
457.232	2261.34
457.606	2274.67
457.979	2340.21
458.352	2358.29
458.725	2373.65
459.099	2420.43
459.472	2423.14
459.845	2443.48
460.218	2492.52
460.591	2502.91
460.964	2527.09
461.337	2567.77
461.71	2631.05
462.083	2633.98
462.456	2643.7
462.829	2638.05
463.201	2687.99
463.574	2715.34
463.947	2761.89
464.32	2777.71
464.692	2799.4
465.065	2825.62
465.438	2852.96
465.81	2881.44
466.183	2913.53
466.555	3001.43
466.928	3027.87
467.3	2980.64
467.672	3036.69
468.045	3115.78
468.417	3103.12
468.789	3128.89
469.161	3200.98
469.534	3217.47
469.906	3283.46
470.278	3307.87
470.65	3360.07
471.022	3404.13
471.394	3440.29
471.766	3524.81
472.138	3514.64
472.51	3602.55
472.882	3636.67
473.253	3635.77
473.625	3730.9
473.997	3740.4
474.369	3782.43
474.74	3849.77
475.112	3870.79
475.484	3943.33
475.855	4009.09
476.227	4076.21
476.598	4146.49
476.97	4167.73
477.341	4280.95
477.713	4283.88
478.084	4331.79
478.455	4494.27
478.827	4459.47
479.198	4602.97
479.569	4626.02
479.94	4720.71
480.311	4826.02
480.682	4904.43
481.053	4959.8
481.424	5059.01
481.795	5117.76
482.166	5163.18
482.537	5254.93
482.908	5412.89
483.279	5391.88
483.65	5521.82
484.021	5596.17
484.391	5650.85
484.762	5733.56
485.133	5760
485.503	5887.46
485.874	6020.79
486.244	6064.63
486.615	6195.25
486.985	6283.61
487.356	6349.37
487.726	6406.99
488.097	6510.72
488.467	6495.58
488.837	6704.16
489.207	6756.59
489.578	6901.44
489.948	6924.72
490.318	7089.69
490.688	7146.41
491.058	7276.8
491.428	7275.44
491.798	7429.34
492.168	7535.1
492.538	7555.66
492.908	7677.92
493.278	7780.06
493.648	7816.67
494.017	7947.29
494.387	7987.74
494.757	8070.9
495.126	8141.18
495.496	8199.26
495.866	8279.03
496.235	8355.87
496.605	8443.1
496.974	8458.46
497.344	8603.77
497.713	8613.71
498.082	8616.88
498.452	8794.5
498.821	8832.01
499.19	8875.85
499.559	8997.88
499.928	9028.62
500.298	9056.87
500.667	9070.65
501.036	9163.3
501.405	9274.94
501.774	9306.8
502.143	9362.62
502.512	9485.78
502.88	9543.63
503.249	9542.96
503.618	9655.49
503.987	9694.59
504.356	9747.24
504.724	9841.03
505.093	9836.73
505.462	9927.8
505.83	10001.47
506.199	10020.46
506.567	10210.06
506.936	10205.08
507.304	10322.14
507.672	10402.14
508.041	10354.23
508.409	10503.16
508.777	10574.79
509.145	10539.09
509.514	10600.78
509.882	10779.76
510.25	10747.9
510.618	10921.68
510.986	10872.19
511.354	10891.62
511.722	11120.54
512.09	11170.03
512.458	11129.81
512.826	11265.17
513.193	11281.89
513.561	11353.3
513.929	11460.64
514.297	11561.66
514.664	11689.57
515.032	11681.43
515.4	11792.16
515.767	11898.15
516.135	11955.55
516.502	11920.07
516.869	12104.7
517.237	12205.94
517.604	12117.35
517.972	12353.95
518.339	12438.25
518.706	12519.15
519.073	12577.68
519.44	12695.41
519.808	12848.18
520.175	12800.27
520.542	12989.64
520.909	13072.81
521.276	13112.35
521.643	13262.41
522.009	13369.97
522.376	13440.71
522.743	13632.34
523.11	13692.68
523.477	13792.79
523.843	13888.38
524.21	14084.08
524.577	14195.49
524.943	14228.48
525.31	14325.65
525.676	14464.63
526.043	14604.29
526.409	14636.61
526.776	14836.38
527.142	14880.67
527.508	14993.66
527.874	15145.52
528.241	15228
528.607	15262.58
528.973	15414.89
529.339	15458.05
529.705	15716.58
530.071	15803.81
530.437	15833.64
530.803	15978.72
531.169	16011.94
531.535	16079.28
531.901	16209.22
532.267	16238.37
532.632	16375.32
532.998	16425.71
533.364	16576.67
533.73	16577.12
534.095	16767.4
534.461	16763.56
534.826	16873.16
535.192	16881.29
535.557	17114.73
535.923	17024.79
536.288	17154.73
536.653	17243.09
537.019	17239.02
537.384	17342.52
537.749	17326.03
538.114	17470.66
538.479	17433.82
538.845	17569.86
539.21	17495.51
539.575	17685.34
539.94	17672.46
540.305	17796.3
540.67	17846.92
541.034	17905.67
541.399	17913.58
541.764	17958.33
542.129	18019.57
542.494	18027.93
542.858	18133.46
543.223	18153.35
543.587	18169.62
543.952	18164.88
544.316	18320.13
544.681	18236.51
545.045	18367.13
545.41	18468.6
545.774	18402.61
546.138	18531.42
546.503	18473.79
546.867	18547.69
547.231	18669.04
547.595	18741.58
547.959	18814.58
548.324	18766.89
548.688	18859.09
549.052	18884.63
549.416	18872.65
549.779	18917.85
550.143	18876.95
550.507	19062.25
550.871	19172.31
551.235	19172.53
551.599	19282.13
551.962	19274.45
552.326	19386.76
552.689	19377.27
553.053	19389.7
553.417	19495.91
553.78	19671.73
554.143	19664.95
554.507	19662.69
554.87	19789.47
555.234	19965.05
555.597	19864.27
555.96	19943.36
556.323	20025.62
556.686	20106.29
557.05	20316.46
557.413	20277.14
557.776	20305.16
558.139	20430.35
558.502	20459.5
558.865	20571.82
559.228	20801.87
559.59	20824.24
559.953	20864.69
560.316	21068.08
560.679	20996.89
561.041	21123.67
561.404	21282.08
561.767	21465.13
562.129	21449.08
562.492	21710.32
562.854	21713.71
563.217	21688.17
563.579	21952.12
563.941	22158.44
564.304	22127.94
564.666	22452.22
565.028	22549.84
565.39	22604.98
565.753	22720.01
566.115	22838.88
566.477	23026.22
566.839	23075.25
567.201	23358.64
567.563	23225.76
567.925	23553.43
568.287	23760.43
568.648	23821.45
569.01	24047.43
569.372	24256.01
569.734	24248.11
570.095	24444.26
570.457	24735.55
570.819	24779.16
571.18	24850.12
571.542	25077.01
571.903	25139.38
572.265	25420.05
572.626	25606.04
572.987	25589.54
573.349	25794.51
573.71	26060.71
574.071	26185.91
574.432	26272.01
574.794	26536.86
575.155	26612.79
575.516	26709.28
575.877	26909.28
576.238	27003.74
576.599	27079.22
576.96	27174.58
577.32	27290.51
577.681	27404.18
578.042	27664.96
578.403	27637.39
578.763	27674.91
579.124	27904.96
579.485	28080.1
579.845	28228.11
580.206	28234.89
580.566	28121.68
580.927	28239.41
581.287	28454.77
581.648	28435.11
582.008	28564.15
582.368	28491.38
582.728	28610.7
583.089	28631.49
583.449	28659.51
583.809	28713.98
584.169	28898.83
584.529	28797.36
584.889	29030.35
585.249	28933.86
585.609	28810.7
585.969	28907.87
586.329	28933.86
586.688	28901.99
587.048	29057.92
587.408	28976.79
587.768	28991.03
588.127	28950.81
588.487	29092.27
588.846	29263.57
589.206	28939.73
589.565	29065.38
589.925	29229.44
590.284	29146.96
590.643	29138.15
591.003	29164.59
591.362	29342.21
591.721	29297.24
592.08	29351.93
592.44	29509.89
592.799	29445.71
593.158	29403.45
593.517	29393.05
593.876	29542.43
594.235	29373.39
594.593	29521.64
594.952	29587.17
595.311	29390.57
595.67	29607.51
596.029	29691.13
596.387	29712.14
596.746	29825.36
597.104	29642.99
597.463	29601.86
597.822	29867.17
598.18	29745.14
598.538	29749.43
598.897	29966.6
599.255	29760.73
599.613	30186.03
599.972	29914.62
600.33	29962.31
600.688	30024.45
601.046	29994.39
601.404	30216.54
601.762	30119.59
602.12	30204.33
602.478	30248.63
602.836	30207.72
603.194	30155.29
603.552	30342.86
603.91	30339.24
604.268	30384.67
604.625	30408.85
604.983	30681.61
605.341	30346.48
605.698	30514.83
606.056	30732
606.413	30477.32
606.771	30811.1
607.128	30725
607.485	30835.5
607.843	30719.35
608.2	30813.81
608.557	30937.87
608.914	30829.85
609.272	31068.94
609.629	31228.49
609.986	31219.9
610.343	31097.19
610.7	31249.05
611.057	31252.44
611.414	31262.38
611.771	31511.64
612.127	31487.92
612.484	31646.33
612.841	31607.23
613.198	31465.32
613.554	31562.94
613.911	31746.44
614.267	31812.88
614.624	31809.71
614.98	31874.35
615.337	32089.03
615.693	31954.57
616.05	31983.72
616.406	32134.23
616.762	32006.32
617.118	32114.79
617.475	32057.62
617.831	32271.4
618.187	32298.29
618.543	32321.79
618.899	32518.62
619.255	32359.3
619.611	32413.31
619.967	32583.25
620.323	32677.04
620.678	32592.97
621.034	32437.27
621.39	32496.7
621.746	32482.47
622.101	32897.37
622.457	32408.79
622.812	32761.78
623.168	32811.04
623.523	32847.88
623.879	32735.57
624.234	32675.91
624.589	32822.12
624.945	32827.31
625.3	32863.25
625.655	32893.53
626.01	32806.52
626.365	32969.01
626.72	32713.42
627.075	32800.65
627.43	32569.92
627.785	32651.95
628.14	32741.44
628.495	32818.5
628.85	32786.64
629.205	32646.98
629.559	32760.65
629.914	32595.91
630.269	32560.88
630.623	32464.84
630.978	32435.01
631.332	32581.22
631.687	32519.53
632.041	32501
632.396	32489.7
632.75	32498.28
633.104	32471.84
633.459	32290.38
633.813	32286.76
634.167	32320.66
634.521	32212.42
634.875	32233.43
635.229	32246.54
635.583	31909.37
635.937	32023.72
636.291	31899.88
636.645	32020.56
636.999	31785.99
637.352	31960.9
637.706	31705.54
638.06	31921.35
638.413	31804.29
638.767	31745.76
639.121	31827.57
639.474	31680.68
639.828	31732.2
640.181	31625.31
640.534	31719.55
640.888	31436.84
641.241	31442.94
641.594	31355.72
641.947	31708.93
642.301	31375.38
642.654	31437.97
643.007	31359.78
643.36	31508.25
643.713	31316.85
644.066	31489.04
644.419	31095.83
644.771	30868.95
645.124	30463.08
645.477	30584.21
645.83	30497.21
646.182	30539.24
646.535	30448.62
646.888	30536.08
647.24	30504.44
647.593	30647.03
647.945	30511.67
648.298	30271.45
648.65	30222.86
649.002	29892.93
649.355	29831.69
649.707	29796.89
650.059	29669.21
650.411	30151.68
650.763	30363.42
651.115	30840.93
651.467	30836.86
651.819	30783.53
652.171	30798.67
652.523	30580.14
652.875	30699.91
653.227	30544.89
653.578	30674.38
653.93	30592.57
654.282	30459.92
654.633	30471.22
654.985	30547.6
655.337	30515.51
655.688	30533.14
656.039	30542.86
656.391	30391.9
656.742	30441.39
657.094	30435.97
657.445	30586.7
657.796	30593.25
658.147	30403.88
658.498	30435.74
658.849	30558.22
659.2	30378.11
659.551	30452.01
659.902	30566.36
660.253	30482.07
660.604	30559.35
660.955	30428.96
661.306	30517.09
661.656	30418.11
662.007	30438.68
662.358	30621.05
662.708	30507.15
663.059	30507.38
663.409	30428.28
663.76	30655.39
664.11	30592.57
664.461	30582.4
664.811	30606.13
665.161	30525.45
665.511	30419.69
665.862	30422.86
666.212	30538.56
666.562	30454.72
666.912	30556.19
667.262	30432.8
667.612	30523.19
667.962	30449.52
668.312	30469.18
668.662	30625.79
669.011	30433.48
669.361	30451.56
669.711	30565
670.06	30413.37
670.41	30405.68
670.76	30506.02
671.109	30542.86
671.459	30404.33
671.808	30438.9
672.157	30413.37
672.507	30201.85
672.856	30368.4
673.205	30325.23
673.554	30444.78
673.904	30276.42
674.253	30474.16
674.602	30284.56
674.951	29919.37
675.3	29698.13
675.649	30206.37
675.998	30166.37
676.346	30203.65
676.695	30294.73
677.044	30043.21
677.393	30157.78
677.741	30094.96
678.09	29991.91
678.438	29967.05
678.787	30010.89
679.135	29955.53
679.484	29791.24
679.832	29872.59
680.181	29787.39
680.529	29873.72
680.877	29673.95
681.225	29666.49
681.573	29889.76
681.922	29756.89
682.27	29696.78
682.618	29667.17
682.966	29559.6
683.314	29483.67
683.661	29468.53
684.009	29469.89
684.357	29283.23
684.705	29228.99
685.053	29189.22
685.4	29148.77
685.748	29095.21
686.095	29055.21
686.443	28914.65
686.79	28895.89
687.138	28981.54
687.485	28918.72
687.832	28755.11
688.18	28718.27
688.527	28678.05
688.874	28617.48
689.221	28452.97
689.568	28410.93
689.915	28337.94
690.262	28372.97
690.609	28184.5
690.956	28128.91
691.303	28034.9
691.65	27970.27
691.997	27904.73
692.344	27725.08
692.69	27746.32
693.037	27607.79
693.383	27448.47
693.73	27485.31
694.077	27408.7
694.423	27403.28
694.769	27290.74
695.116	27186.79
695.462	27036.96
695.808	26959.67
696.155	26989.05
696.501	26661.38
696.847	26857.75
697.193	26544.99
697.539	26657.31
697.885	26435.17
698.231	26263.87
698.577	26344.1
698.923	26264.78
699.269	26091.22
699.614	25956.54
699.96	25855.07
700.306	25794.05
700.651	25723.77
700.997	25615.3
701.342	25483.1
701.688	25431.13
702.033	25387.96
702.379	25399.49
702.724	25185.03
703.069	25188.87
703.415	24951.59
703.76	25021.19
704.105	25031.81
704.45	24889.22
704.795	24770.35
705.14	24587.53
705.485	24637.25
705.83	24445.61
706.175	24545.5
706.52	24470.92
706.865	24419.85
707.209	24371.72
707.554	24261.44
707.899	24230.7
708.243	24117.04
708.588	24058.51
708.932	23953.42
709.277	24026.87
709.621	23871.62
709.966	23864.39
710.31	23792.3
710.654	23647.67
710.998	23693.09
711.342	23652.19
711.687	23624.17
712.031	23579.2
712.375	23465.3
712.719	23387.56
713.063	23355.7
713.407	23397.73
713.75	23323.38
714.094	23305.31
714.438	23139.43
714.782	23312.76
715.125	23102.15
715.469	23168.13
715.812	23079.1
716.156	22948.7
716.499	22916.39
716.843	22997.29
717.186	22895.6
717.53	23059.89
717.873	22950.96
718.216	22942.6
718.559	22969.49
718.902	22710.97
719.246	22749.39
719.589	22702.84
719.932	22603.18
720.275	22618.54
720.617	22646.11
720.96	22680.46
721.303	22651.31
721.646	22657.86
721.989	22503.74
722.331	22515.95
722.674	22586.91
723.016	22525.44
723.359	22402.73
723.701	22475.72
724.044	22429.4
724.386	22381.04
724.729	22435.05
725.071	22449.06
725.413	22355.95
725.755	22392.79
726.097	22264.88
726.439	22241.38
726.782	22125.45
727.124	22355.73
727.465	22250.64
727.807	22138.56
728.149	22237.54
728.491	22123.42
728.833	22176.52
729.175	22200.7
729.516	22253.58
729.858	22139.46
730.199	22244.99
730.541	22132.91
730.882	22187.37
731.224	22178.56
731.565	22069.86
731.906	22193.02
732.248	22175.84
732.589	22067.15
732.93	22036.41
733.271	22141.27
733.612	22076.64
733.953	22239.8
734.294	22123.64
734.635	22144.66
734.976	22248.84
735.317	22183.53
735.658	22221.72
735.999	22091.55
736.339	22102.63
736.68	22174.26
737.021	22148.27
737.361	22294.71
737.702	22200.7
738.042	22192.11
738.383	22259.91
738.723	22264.88
739.063	22296.74
739.404	22379.45
739.744	22296.97
740.084	22256.29
740.424	22400.24
740.764	22279.12
741.104	22424.42
741.444	22348.95
741.784	22242.73
742.124	22384.43
742.464	22355.73
742.804	22402.5
743.143	22413.8
743.483	22498.55
743.823	22377.42
744.162	22509.39
744.502	22682.27
744.841	22550.07
745.181	22726.11
745.52	22725.89
745.86	22658.99
746.199	22726.79
746.538	22797.97
746.877	22953
747.216	22856.5
747.556	22923.17
747.895	22931.53
748.234	22970.17
748.573	23029.15
748.911	23027.57
749.25	23059.21
749.589	23064.18
749.928	23183.73
750.267	23328.13
750.605	23342.37
750.944	23506.88
751.283	23415.81
751.621	23554.56
751.96	23582.59
752.298	23497.84
752.636	23655.35
752.975	23635.47
753.313	23642.92
753.651	23876.82
753.989	23766.99
754.327	23898.51
754.666	23882.01
755.004	24104.83
755.342	24075.68
755.679	24182.8
756.017	24026.42
756.355	24205.39
756.693	24145.51
757.031	24364.49
757.368	24355
757.706	24352.51
758.044	24200.87
758.381	24425.73
758.719	24405.39
759.056	24648.77
759.394	24571.03
759.731	24375.79
760.068	24731.71
760.405	24585.72
760.743	24661.2
761.08	24620.52
761.417	24527.42
761.754	24532.62
762.091	24734.65
762.428	24673.18
762.765	24602.9
763.102	24663.24
763.438	24769.45
763.775	24605.16
764.112	24757.7
764.449	24680.64
764.785	24610.58
765.122	24610.13
765.458	24548.66
765.795	24609
766.131	24715.89
766.467	24679.28
766.804	24494.65
767.14	24494.65
767.476	24512.28
767.812	24523.13
768.148	24560.19
768.485	24363.81
768.821	24218.28
769.157	24266.86
769.492	24291.27
769.828	24242.46
770.164	24120.88
770.5	24170.82
770.836	24175.34
771.171	24025.29
771.507	24033.42
771.842	23909.81
772.178	23878.85
772.513	23875.46
772.849	23808.34
773.184	23749.81
773.519	23717.95
773.855	23647.9
774.19	23703.49
774.525	23573.09
774.86	23445.19
775.195	23465.3
775.53	23291.75
775.865	23311.86
776.2	23200.22
776.535	22993
776.87	23089.04
777.205	22882.04
777.539	22903.06
777.874	22945.31
778.209	22711.2
778.543	22700.35
778.878	22571.31
779.212	22551.65
779.547	22407.7
779.881	22456.29
780.215	22312.11
780.55	22462.16
780.884	22249.74
781.218	22159.12
781.552	22140.82
781.886	22094.26
782.22	21943.31
782.554	21850.43
782.888	21739.02
783.222	21703.99
783.556	21544.67
783.889	21515.52
784.223	21337.45
784.557	21280.5
784.89	21402.98
785.224	21273.27
785.557	21106.04
785.891	21136.1
786.224	20965.25
786.558	21102.43
786.891	20919.61
787.224	20788.08
787.557	20724.13
787.891	20625.83
788.224	20697.01
788.557	20501.99
788.89	20556.45
789.223	20534.3
789.556	20389
789.888	20230.81
790.221	20250.47
790.554	20114.65
790.887	20211.83
791.219	20079.4
791.552	19991.04
791.884	19903.59
792.217	19807.54
792.549	19771.84
792.882	19669.69
793.214	19662.24
793.546	19679.86
793.879	19594.22
794.211	19401.23
794.543	19598.28
794.875	19409.81
795.207	19346.09
795.539	19265.86
795.871	19309.7
796.203	19135.7
796.535	19098.86
796.867	19089.82
797.198	18947.23
797.53	18840.34
797.862	18792.88
798.193	18837.63
798.525	18713.56
798.856	18865.87
799.188	18547.46
799.519	18554.47
799.85	18384.76
800.182	18451.87
800.513	18516.96
800.844	18227.25
801.175	18407.35
801.506	18320.35
801.837	18201.94
802.168	18152.45
802.499	18177.76
802.83	18065.9
803.161	17872.45
803.491	18036.97
803.822	17960.59
804.153	17726.47
804.483	17795.85
804.814	17679.69
805.145	17676.07
805.475	17650.54
805.805	17578.22
806.136	17677.66
806.466	17563.08
806.796	17568.06
807.126	17408.74
807.457	17380.72
807.787	17405.8
808.117	17364.44
808.447	17290.77
808.777	17332.13
809.107	17098.01
809.436	17025.24
809.766	17099.14
810.096	17131.91
810.426	16921.97
810.755	17001.97
811.085	16918.58
811.414	16983.21
811.744	16808.98
812.073	16769.66
812.403	16758.81
812.732	16691.92
813.061	16691.02
813.39	16612.83
813.719	16619.61
814.049	16606.05
814.378	16525.37
814.707	16538.25
815.036	16540.74
815.365	16434.53
815.693	16270.91
816.022	16235.66
816.351	16183.01
816.68	16232.72
817.008	16260.74
817.337	16060.3
817.665	16065.04
817.994	16167.41
818.322	16134.42
818.651	16011.26
818.979	15947.76
819.307	16104.82
819.636	16034.76
819.964	15930.13
820.292	15922.45
820.62	15925.16
820.948	15981.2
821.276	15973.52
821.604	15832.28
821.932	16001.54
822.259	15900.53
822.587	15877.25
822.915	15816.01
823.243	15987.53
823.57	15860.3
823.898	15892.84
824.225	15816.46
824.553	15818.72
824.88	15917.48
825.207	15914.99
825.535	15807.65
825.862	15853.3
826.189	15830.7
826.516	15976.91
826.843	15985.72
827.17	15851.94
827.497	15913.18
827.824	15914.09
828.151	15944.59
828.478	15842
828.805	15888.78
829.131	15917.93
829.458	15906.86
829.785	15817.82
830.111	15907.76
830.438	15990.92
830.764	15944.37
831.09	15987.98
831.417	15862.11
831.743	15865.5
832.069	15823.24
832.395	15832.96
832.722	15863.02
833.048	15795.45
833.374	15926.74
833.7	15782.57
834.026	15959.06
834.351	15842.9
834.677	15872.73
835.003	15806.97
835.329	15738.95
835.654	15769.91
835.98	15656.24
836.306	15735.79
836.631	15714.77
836.956	15725.84
837.282	15792.06
837.607	15616.92
837.932	15668.44
838.258	15655.56
838.583	15742.11
838.908	15590.03
839.233	15546.19
839.558	15487.43
839.883	15477.49
840.208	15408.79
840.533	15423.7
840.858	15422.57
841.182	15356.59
841.507	15345.97
841.832	15325.18
842.156	15377.6
842.481	15280.66
842.805	15331.96
843.13	15187.78
843.454	15155.46
843.778	15103.94
844.103	15163.6
844.427	15057.61
844.751	15082.92
845.075	15006.77
845.399	14949.82
845.723	14905.98
846.047	14957.28
846.371	14844.96
846.695	14808.58
847.019	14668.24
847.343	14718.86
847.666	14622.6
847.99	14601.13
848.313	14567.23
848.637	14558.42
848.96	14440.23
849.284	14443.84
849.607	14428.93
849.931	14306.67
850.254	14159.33
850.577	14138.09
850.9	14093.57
851.223	14084.98
851.546	13992.33
851.869	13792.56
852.192	13892.22
852.515	13811.09
852.838	13714.82
853.161	13765.44
853.483	13639.57
853.806	13642.06
854.129	13652.45
854.451	13643.19
854.774	13539.46
855.096	13452.68
855.419	13425.57
855.741	13413.14
856.063	13345.79
856.385	13268.06
856.708	13196.87
857.03	13250.65
857.352	13209.53
857.674	13119.13
857.996	13108.74
858.318	13019.25
858.64	13091.11
858.961	12970.21
859.283	12960.49
859.605	12968.4
859.926	12909.65
860.248	12852.47
860.57	12777.45
860.891	12797.56
861.212	12750.55
861.534	12662.87
861.855	12625.36
862.176	12707.17
862.498	12697.45
862.819	12685.25
863.14	12553.27
863.461	12536.1
863.782	12479.6
864.103	12548.75
864.424	12543.78
864.745	12455.87
865.065	12385.82
865.386	12408.42
865.707	12374.07
866.027	12428.08
866.348	12424.24
866.668	12358.47
866.989	12402.54
867.309	12191.47
867.63	12292.94
867.95	12368.19
868.27	12101.31
868.59	12199.38
868.91	12203.22
869.23	12199.61
869.55	12103.57
869.87	12136.11
870.19	12065.15
870.51	12097.92
870.83	12044.58
871.15	11952.38
871.469	12012.04
871.789	11970.24
872.109	12067.41
872.428	11892.05
872.748	12026.51
873.067	11929.56
873.386	11893.18
873.706	11951.71
874.025	11837.36
874.344	11878.71
874.663	11899.05
874.982	11828.54
875.301	11830.13
875.62	11772.05
875.939	11706.97
876.258	11753.74
876.577	11721.43
876.896	11720.3
877.214	11577.48
877.533	11598.72
877.852	11662.45
878.17	11648.89
878.489	11622.45
878.807	11580.19
879.125	11578.83
879.444	11517.82
879.762	11552.17
880.08	11517.14
880.398	11500.64
880.716	11485.73
881.034	11443.02
881.352	11446.18
881.67	11442.79
881.988	11412.51
882.306	11413.41
882.624	11349.46
882.941	11327.77
883.259	11235.11
883.577	11240.09
883.894	11265.17
884.212	11207.09
884.529	11134.1
884.846	11177.71
885.164	11154.66
885.481	11144.5
885.798	11121.22
886.115	11033.99
886.432	11103.37
886.75	10961.22
887.067	11084.84
887.383	10967.55
887.7	10948.57
888.017	10904.73
888.334	10892.75
888.651	10856.37
888.967	10817.27
889.284	10855.24
889.6	10754.45
889.917	10692.98
890.233	10683.49
890.55	10652.08
890.866	10677.16
891.182	10655.24
891.498	10671.74
891.815	10582.7
892.131	10474
892.447	10511.07
892.763	10477.17
893.079	10433.33
893.395	10349.71
893.71	10356.49
894.026	10336.83
894.342	10338.64
894.657	10271.98
894.973	10245.08
895.289	10267.68
895.604	10194.24
895.92	10113.11
896.235	10094.81
896.55	10126.22
896.865	10003.06
897.181	10015.26
897.496	10031.76
897.811	9989.5
898.126	9930.06
898.441	9882.16
898.756	9921.25
899.071	9857.52
899.386	9823.85
899.7	9741.59
900.015	9676.74
900.33	9624.31
900.644	9668.15
900.959	9602.39
901.273	9624.99
901.588	9589.96
901.902	9589.96
902.216	9495.5
902.531	9486.46
902.845	9467.93
903.159	9406.69
903.473	9335.28
903.787	9284.21
904.101	9278.1
904.415	9296.63
904.729	9308.39
905.042	9211.44
905.356	9152.91
905.67	9141.16
905.984	9142.29
906.297	9092.8
906.611	9008.96
906.924	9010.09
907.237	8958.79
907.551	8901.84
907.864	8835.86
908.177	8878.79
908.491	8816.65
908.804	8734.16
909.117	8759.47
909.43	8705.46
909.743	8706.37
910.056	8683.99
910.368	8583.66
910.681	8572.81
910.994	8595.41
911.307	8537.11
911.619	8500.5
911.932	8526.26
912.244	8414.4
912.557	8365.59
912.869	8293.72
913.181	8350.22
913.494	8319.71
913.806	8237.9
914.118	8220.73
914.43	8169.88
914.742	8193.16
915.054	8166.72
915.366	8119.94
915.678	8080.85
915.99	8031.13
916.302	8000.85
916.613	7905.71
916.925	7961.08
917.236	7929.66
917.548	7838.82
917.859	7850.8
918.171	7797.01
918.482	7747.3
918.794	7716.56
919.105	7758.37
919.416	7666.62
919.727	7581.65
920.038	7657.81
920.349	7537.81
920.66	7554.08
920.971	7536.45
921.282	7522.9
921.593	7440.86
921.903	7387.76
922.214	7368.32
922.525	7333.97
922.835	7320.19
923.146	7291.94
923.456	7333.97
923.767	7196.8
924.077	7183.47
924.387	7211.27
924.697	7114.09
925.008	7073.64
925.318	7077.71
925.628	7100.53
925.938	7057.82
926.248	6975.57
926.558	7017.15
926.867	6939.41
927.177	6876.36
927.487	6887.66
927.796	6905.06
928.106	6850.6
928.416	6754.1
928.725	6747.55
929.034	6783.71
929.344	6727.89
929.653	6719.3
929.962	6683.82
930.271	6661.68
930.581	6631.39
930.89	6649.02
931.199	6546.2
931.508	6561.34
931.817	6536.48
932.125	6519.08
932.434	6430.27
932.743	6389.14
933.051	6355.24
933.36	6365.41
933.669	6330.38
933.977	6319.31
934.286	6303.04
934.594	6294.23
934.902	6227.79
935.21	6204.51
935.519	6180.11
935.827	6201.57
936.135	6137.4
936.443	6111.86
936.751	6097.62
937.059	6042.71
937.367	6052.2
937.674	6031.18
937.982	5994.8
938.29	5980.56
938.597	5922.71
938.905	5924.07
939.213	5891.53
939.52	5863.5
939.827	5900.34
940.135	5871.87
940.442	5790.74
940.749	5805.88
941.056	5789.38
941.363	5685.43
941.67	5769.72
941.977	5690.4
942.284	5652.66
942.591	5616.73
942.898	5603.85
943.205	5571.99
943.511	5537.64
943.818	5521.59
944.125	5478.43
944.431	5436.85
944.738	5447.24
945.044	5377.42
945.35	5438.66
945.657	5401.82
945.963	5357.75
946.269	5349.62
946.575	5357.08
946.881	5269.4
947.187	5304.87
947.493	5225.33
947.799	5240.02
948.105	5192.79
948.41	5188.27
948.716	5229.85
949.022	5141.94
949.327	5136.97
949.633	5034.83
949.938	5076.86
950.244	5051.32
950.549	5025.56
950.854	4961.38
951.16	5002.51
951.465	4951.21
951.77	4947.14
952.075	4940.59
952.38	4944.43
952.685	4866.24
952.99	4843.87
953.294	4909.4
953.599	4792.57
953.904	4783.31
954.209	4804.77
954.513	4770.65
954.818	4745.34
955.122	4742.63
955.426	4690.43
955.731	4685
956.035	4612.24
956.339	4611.79
956.643	4597.55
956.948	4554.84
957.252	4567.94
957.556	4617.66
957.86	4545.57
958.163	4514.16
958.467	4500.15
958.771	4523.43
959.075	4495.4
959.378	4450.66
959.682	4457.89
959.985	4411.56
960.289	4367.05
960.592	4388.74
960.896	4364.56
961.199	4361.4
961.502	4315.52
961.805	4289.53
962.108	4271.46
962.411	4270.55
962.714	4247.95
963.017	4249.54
963.32	4233.04
963.623	4230.55
963.926	4176.77
964.228	4144.91
964.531	4125.02
964.833	4195.3
965.136	4075.98
965.438	4115.75
965.741	4060.39
966.043	4068.97
966.345	4019.03
966.648	4030.56
966.95	4010.9
967.252	3985.59
967.554	3978.36
967.856	3956.89
968.158	3911.92
968.46	3894.29
968.761	3888.41
969.063	3869.66
969.365	3875.31
969.666	3877.34
969.968	3769.1
970.269	3800.96
970.571	3809.32
970.872	3780.39
971.174	3765.71
971.475	3788.98
971.776	3742.2
972.077	3754.86
972.378	3707.85
972.679	3714.63
972.98	3682.32
973.281	3685.48
973.582	3660.4
973.883	3610
974.183	3597.57
974.484	3612.49
974.785	3605.03
975.085	3556.67
975.386	3550.57
975.686	3546.5
975.986	3502.89
976.287	3513.96
976.587	3490.91
976.887	3470.12
977.187	3457.01
977.487	3463.12
977.787	3467.63
978.087	3387.18
978.387	3355.32
978.687	3357.36
978.987	3344.02
979.286	3350.58
979.586	3344.02
979.885	3313.74
980.185	3289.56
980.484	3255.21
980.784	3264.48
981.083	3268.32
981.382	3249.79
981.682	3225.16
981.981	3209.56
982.28	3237.81
982.579	3185.61
982.878	3159.39
983.177	3186.06
983.475	3135.67
983.774	3130.02
984.073	3109.45
984.372	3115.33
984.67	3097.25
984.969	3056.12
985.267	3085.72
985.566	3036.23
985.864	3043.47
986.162	3028.1
986.461	3002.56
986.759	3012.51
987.057	2967.53
987.355	2929.34
987.653	2935.67
987.951	2935.22
988.249	2942
988.547	2904.94
988.844	2896.12
989.142	2905.62
989.44	2869.68
989.737	2859.52
990.035	2857.71
990.332	2808.67
990.63	2802.12
990.927	2826.3
991.224	2789.46
991.521	2801.44
991.819	2785.39
992.116	2744.94
992.413	2761.66
992.71	2756.02
993.006	2726.64
993.303	2735.22
993.6	2698.39
993.897	2714.21
994.193	2687.54
994.49	2663.36
994.787	2682.57
995.083	2607.09
995.379	2608.67
995.676	2576.13
995.972	2606.19
996.268	2585.4
996.565	2602.12
996.861	2545.17
997.157	2551.05
997.453	2533.65
997.749	2515.12
998.044	2495.23
998.34	2496.59
998.636	2510.15
998.932	2487.77
999.227	2450.26
999.523	2464.5
999.818	2435.57
1000.114	2431.96
1000.409	2419.75
1000.704	2405.74
1001	2414.33
1001.295	2350.83
1001.59	2370.26
1001.885	2354.9
1002.18	2337.5
1002.475	2295.69
1002.77	2308.12
1003.065	2335.24
1003.359	2294.78
1003.654	2285.74
1003.949	2287.33
1004.243	2255.69
1004.538	2194.22
1004.832	2244.62
1005.127	2197.61
1005.421	2233.54
1005.715	2203.26
1006.009	2173.21
1006.304	2143.15
1006.598	2151.29
1006.892	2123.49
1007.186	2135.69
1007.48	2116.26
1007.773	2088.91
1008.067	2103.38
1008.361	2069.48
1008.655	2102.02
1008.948	2055.69
1009.242	2076.26
1009.535	2051.17
1009.829	2057.5
1010.122	2015.7
1010.415	2051.63
1010.708	1984.06
1011.001	1991.74
1011.295	1985.41
1011.588	1970.5
1011.881	1973.89
1012.173	1935.25
1012.466	1922.82
1012.759	1926.88
1013.052	1909.26
1013.344	1883.95
1013.637	1885.08
1013.93	1870.61
1014.222	1863.38
1014.514	1854.34
1014.807	1841.69
1015.099	1808.02
1015.391	1811.86
1015.683	1818.41
1015.976	1815.02
1016.268	1769.15
1016.56	1756.95
1016.851	1756.95
1017.143	1754.91
1017.435	1755.59
1017.727	1716.49
1018.018	1711.75
1018.31	1704.29
1018.602	1695.48
1018.893	1652.32
1019.185	1700.45
1019.476	1666.78
1019.767	1676.95
1020.058	1634.69
1020.35	1628.81
1020.641	1607.12
1020.932	1601.92
1021.223	1573
1021.514	1602.15
1021.804	1574.8
1022.095	1533.9
1022.386	1581.36
1022.677	1556.95
1022.967	1519.21
1023.258	1568.25
1023.548	1515.37
1023.839	1504.3
1024.129	1515.37
1024.419	1467.91
1024.709	1484.64
1025	1495.48
1025.29	1465.65
1025.58	1469.27
1025.87	1456.61
1026.16	1406.45
1026.449	1432.21
1026.739	1418.42
1027.029	1424.98
1027.319	1413.68
1027.608	1356.73
1027.898	1396.28
1028.187	1377.75
1028.477	1358.09
1028.766	1342.49
1029.055	1317.86
1029.344	1351.31
1029.634	1336.62
1029.923	1326.67
1030.212	1281.03
1030.501	1302.72
1030.79	1267.92
1031.078	1294.36
1031.367	1252.55
1031.656	1265.21
1031.945	1271.08
1032.233	1254.81
1032.522	1255.26
1032.81	1235.83
1033.099	1212.1
1033.387	1236.28
1033.675	1195.6
1033.963	1188.15
1034.251	1201.71
1034.54	1191.31
1034.828	1172.1
1035.116	1182.5
1035.403	1166
1035.691	1156.28
1035.979	1143.63
1036.267	1149.73
1036.554	1129.84
1036.842	1121.48
1037.129	1107.02
1037.417	1107.7
1037.704	1113.35
1037.992	1125.55
1038.279	1098.66
1038.566	1087.13
1038.853	1087.13
1039.14	1087.13
