Data from 5405_FLMS001491_005.txt Node
Date: Thu Apr 19 16:38:19 BST 2018
User: hsy
Spectrometer: FLMS00149
Trigger mode: 0
Integration Time (sec): 1.000000E-2
Scans to average: 10
Electric dark correction enabled: true
Nonlinearity correction enabled: false
Boxcar width: 0
XAxis mode: Wavelengths
Number of Pixels in Spectrum: 2048
>>>>>Begin Spectral Data<<<<<
341.393	-19.97
341.776	-19.97
342.16	-19.97
342.543	-54.32
342.927	-73.76
343.31	-81.44
343.693	-96.35
344.077	-78.5
344.46	-67.65
344.843	-47.54
345.226	-42.57
345.61	-30.82
345.993	-30.37
346.376	-13.64
346.759	9.86
347.142	38.56
347.525	45.11
347.908	72
348.291	84.66
348.674	122.4
349.057	116.3
349.44	121.49
349.823	135.05
350.206	171.66
350.588	199.91
350.971	240.13
351.354	230.19
351.737	284.65
352.119	274.48
352.502	280.59
352.884	308.16
353.267	308.83
353.65	327.14
354.032	323.52
354.414	332.34
354.797	333.69
355.179	335.05
355.562	329.85
355.944	340.02
356.326	352
356.709	369.4
357.091	361.71
357.473	366.69
357.855	387.25
358.238	366.69
358.62	369.62
359.002	355.16
359.384	362.39
359.766	383.18
360.148	359.23
360.53	368.49
360.912	373.24
361.294	387.93
361.676	375.27
362.057	371.66
362.439	359.91
362.821	360.81
363.203	368.72
363.584	344.76
363.966	351.54
364.348	363.97
364.729	372.79
365.111	363.3
365.493	384.76
365.874	350.19
366.256	369.17
366.637	359.91
367.019	353.35
367.4	354.93
367.781	347.48
368.163	373.01
368.544	364.43
368.925	356.06
369.306	387.02
369.688	365.1
370.069	353.58
370.45	360.58
370.831	386.57
371.212	342.73
371.593	369.17
371.974	385.44
372.355	370.08
372.736	377.76
373.117	405.55
373.498	387.48
373.879	383.41
374.26	359.45
374.641	362.17
375.021	381.6
375.402	378.44
375.783	396.74
376.163	387.7
376.544	394.93
376.925	381.6
377.305	411.88
377.686	400.58
378.066	406.68
378.447	400.36
378.827	392.67
379.208	387.25
379.588	423.63
379.968	413.69
380.349	402.16
380.729	417.98
381.109	411.43
381.489	437.87
381.87	427.02
382.25	414.37
382.63	430.86
383.01	448.49
383.39	424.99
383.77	436.74
384.15	442.39
384.53	458.66
384.91	433.8
385.29	453.24
385.67	446.91
386.049	456.85
386.429	459.11
386.809	448.27
387.189	471.77
387.568	486
387.948	491.65
388.328	483.97
388.707	485.1
389.087	484.42
389.466	479.22
389.846	480.58
390.225	520.35
390.605	486.68
390.984	508.38
391.363	517.87
391.743	501.6
392.122	503.18
392.501	539.11
392.881	505.66
393.26	516.51
393.639	512.67
394.018	546.57
394.397	542.95
394.776	523.97
395.155	540.24
395.534	537.98
395.913	568.04
396.292	563.74
396.671	569.17
397.05	562.84
397.429	566.91
397.808	578.88
398.186	577.3
398.565	578.43
398.944	559.9
399.323	586.57
399.701	596.96
400.08	609.84
400.458	565.78
400.837	586.34
401.215	634.25
401.594	620.01
401.972	619.11
402.351	623.18
402.729	626.79
403.107	636.06
403.486	658.2
403.864	654.14
404.242	643.06
404.62	676.28
404.999	664.98
405.377	672.44
405.755	701.14
406.133	720.8
406.511	700.69
406.889	707.69
407.267	718.31
407.645	728.48
408.023	729.61
408.401	733
408.779	741.36
409.156	778.65
409.534	740.91
409.912	788.37
410.29	758.77
410.667	790.85
411.045	808.26
411.422	788.14
411.8	821.14
412.178	850.97
412.555	847.8
412.933	840.8
413.31	873.79
413.687	855.71
414.065	886.9
414.442	855.49
414.819	900.68
415.197	897.07
415.574	916.5
415.951	931.42
416.328	925.09
416.705	939.55
417.082	948.59
417.46	944.52
417.837	990.62
418.214	952.43
418.591	986.33
418.967	987.46
419.344	965.99
419.721	980.45
420.098	988.14
420.475	1030.4
420.852	1031.07
421.228	1030.4
421.605	1047.57
421.982	1065.2
422.358	1075.37
422.735	1039.89
423.111	1059.32
423.488	1090.51
423.864	1095.25
424.241	1130.51
424.617	1120.56
424.994	1125.54
425.37	1162.6
425.746	1149.04
426.123	1173.9
426.499	1177.74
426.875	1197.62
427.251	1195.59
427.627	1270.16
428.003	1228.13
428.379	1256.83
428.756	1288.92
429.132	1262.03
429.507	1299.77
429.883	1305.87
430.259	1327.79
430.635	1377.05
431.011	1352.42
431.387	1395.81
431.763	1422.25
432.138	1429.48
432.514	1427.22
432.89	1441.69
433.265	1483.94
433.641	1490.72
434.016	1517.84
434.392	1521.01
434.767	1567.33
435.143	1547.9
435.518	1565.3
435.894	1579.99
436.269	1619.76
436.644	1653.21
437.02	1686.2
437.395	1671.06
437.77	1699.53
438.145	1725.07
438.52	1724.16
438.895	1784.5
439.271	1772.3
439.646	1781.56
440.021	1784.95
440.395	1765.29
440.77	1791.05
441.145	1806.65
441.52	1829.92
441.895	1844.39
442.27	1866.08
442.645	1838.74
443.019	1857.95
443.394	1849.81
443.769	1888.45
444.143	1870.37
444.518	1908.79
444.892	1917.6
445.267	1906.98
445.641	1940.66
446.016	1995.34
446.39	2006.42
446.764	1981.78
447.139	1962.12
447.513	1998.96
447.887	2033.53
448.262	2019.52
448.636	2025.17
449.01	2064.27
449.384	2079.18
449.758	2069.24
450.132	2133.87
450.506	2127.32
450.88	2159.41
451.254	2149.69
451.628	2185.39
452.002	2183.59
452.376	2214.55
452.75	2257.93
453.123	2253.87
453.497	2300.65
453.871	2291.38
454.244	2367.08
454.618	2380.19
454.992	2414.09
455.365	2454.99
455.739	2477.14
456.112	2517.36
456.486	2516.23
456.859	2541.09
457.232	2609.79
457.606	2610.24
457.979	2636.68
458.352	2691.6
458.725	2699.96
459.099	2727.08
459.472	2829.45
459.845	2827.86
460.218	2863.12
460.591	2864.47
460.964	2894.75
461.337	2939.05
461.71	3001.42
462.083	3013.85
462.456	3053.85
462.829	3049.1
463.201	3096.78
463.574	3084.58
463.947	3167.74
464.32	3206.61
464.692	3224.69
465.065	3258.59
465.438	3321.41
465.81	3362.31
466.183	3344.01
466.555	3426.94
466.928	3450.67
467.3	3440.5
467.672	3531.35
468.045	3539.48
468.417	3539.48
468.789	3598.46
469.161	3642.98
469.534	3716.2
469.906	3773.6
470.278	3794.17
470.65	3795.3
471.022	3889.53
471.394	3952.81
471.766	3998.68
472.138	4048.17
472.51	4088.17
472.882	4145.57
473.253	4193.03
473.625	4268.96
473.997	4344.66
474.369	4366.13
474.74	4422.85
475.112	4495.62
475.484	4556.63
475.855	4636.86
476.227	4603.64
476.598	4785.1
476.97	4854.02
477.341	4909.39
477.713	5014.7
478.084	5023.96
478.455	5169.04
478.827	5259.66
479.198	5347.57
479.569	5344.63
479.94	5505.53
480.311	5538.98
480.682	5646.77
481.053	5780.78
481.424	5915.24
481.795	5953.88
482.166	6002.47
482.537	6091.28
482.908	6233.42
483.279	6326.75
483.65	6388.45
484.021	6583.24
484.391	6692.39
484.762	6624.83
485.133	6754.54
485.503	6833.18
485.874	7016.91
486.244	7050.8
486.615	7212.38
486.985	7354.07
487.356	7420.06
487.726	7469.1
488.097	7671.35
488.467	7656.21
488.837	7875.41
489.207	7933.49
489.578	8055.75
489.948	8180.49
490.318	8281.73
490.688	8325.57
491.058	8457.55
491.428	8572.35
491.798	8615.28
492.168	8800.36
492.538	8945.89
492.908	9001.49
493.278	9120.81
493.648	9163.97
494.017	9315.38
494.387	9350.63
494.757	9451.19
495.126	9507.69
495.496	9618.87
495.866	9629.72
496.235	9852.99
496.605	9897.06
496.974	9864.29
497.344	10021.57
497.713	10090.27
498.082	10202.81
498.452	10241.45
498.821	10320.32
499.19	10406.65
499.559	10459.53
499.928	10522.8
500.298	10582.69
500.667	10671.73
501.036	10736.36
501.405	10832.4
501.774	10819.97
502.143	10930.7
502.512	10982.23
502.88	11081.66
503.249	11137.7
503.618	11254.76
503.987	11226.51
504.356	11395.1
504.724	11436.45
505.093	11447.52
505.462	11526.62
505.83	11685.48
506.199	11707.86
506.567	11793.96
506.936	11847.06
507.304	12051.35
507.672	12103.55
508.041	12025.14
508.409	12062.42
508.777	12218.35
509.145	12399.59
509.514	12444.33
509.882	12462.19
510.25	12550.32
510.618	12648.17
510.986	12648.4
511.354	12820.6
511.722	13003.19
512.09	13077.54
512.458	12968.16
512.826	13072.79
513.193	13232.34
513.561	13245.44
513.929	13241.83
514.297	13515.27
514.664	13611.76
515.032	13710.74
515.4	13738.09
515.767	13867.8
516.135	13911.19
516.502	13896.05
516.869	14234.34
517.237	14208.36
517.604	14085.65
517.972	14377.39
518.339	14481.79
518.706	14525.86
519.073	14694.44
519.44	14710.71
519.808	14920.65
520.175	14956.36
520.542	15123.59
520.909	15249.91
521.276	15289
521.643	15486.06
522.009	15576.23
522.376	15697.36
522.743	15746.39
523.11	15972.38
523.477	16105.03
523.843	16132.82
524.21	16385.93
524.577	16511.57
524.943	16706.14
525.31	16614.62
525.676	16940.94
526.043	16991.11
526.409	17160.82
526.776	17278.78
527.142	17438.1
527.508	17428.16
527.874	17595.38
528.241	17707.02
528.607	17837.19
528.973	18055.49
529.339	18057.52
529.705	18328.25
530.071	18469.71
530.437	18539.09
530.803	18639.2
531.169	18721.68
531.535	18901.79
531.901	18927.1
532.267	18899.53
532.632	19083.71
532.998	19254.55
533.364	19277.83
533.73	19411.16
534.095	19529.35
534.461	19673.07
534.826	19723.24
535.192	19769.11
535.557	19806.4
535.923	19898.15
536.288	20073.29
536.653	20066.51
537.019	20129.78
537.384	20218.59
537.749	20237.12
538.114	20317.12
538.479	20361.87
538.845	20513.05
539.21	20367.29
539.575	20480.28
539.94	20601.63
540.305	20670.56
540.67	20660.16
541.034	20845.47
541.399	20764.79
541.764	20943.55
542.129	20998.01
542.494	20961.62
542.858	21046.14
543.223	21003.2
543.587	21223.99
543.952	21217.21
544.316	21290.43
544.681	21230.54
545.045	21423.08
545.41	21482.74
545.774	21400.03
546.138	21521.61
546.503	21625.34
546.867	21620.14
547.231	21783.07
547.595	21789.4
547.959	21857.65
548.324	21939
548.688	21925.89
549.052	21987.13
549.416	21993.01
549.779	21877.98
550.143	22006.57
550.507	22253.79
550.871	22266.22
551.235	22279.56
551.599	22434.58
551.962	22506.44
552.326	22628.47
552.689	22554.8
553.053	22462.6
553.417	22651.07
553.78	22850.16
554.143	22835.25
554.507	22900.56
554.87	22959.99
555.234	23205.63
555.597	23096.94
555.96	23184.84
556.323	23301.22
556.686	23331.96
557.05	23442.46
557.413	23579.86
557.776	23642.91
558.139	23716.13
558.502	23778.95
558.865	23907.76
559.228	24059.17
559.59	24139.17
559.953	24132.16
560.316	24430.23
560.679	24472.72
561.041	24617.35
561.404	24855.53
561.767	24952.48
562.129	25061.86
562.492	25198.12
562.854	25294.39
563.217	25337.55
563.579	25545.01
563.941	25568.96
564.304	25833.36
564.666	26091.66
565.028	26111.09
565.39	26186.35
565.753	26468.6
566.115	26484.19
566.477	26711.08
566.839	26835.14
567.201	27205.75
567.563	27202.14
567.925	27420.66
568.287	27540.66
568.648	27833.53
569.01	27935.45
569.372	28235.33
569.734	28259.96
570.095	28486.4
570.457	28705.83
570.819	28875.54
571.18	28923.67
571.542	29293.16
571.903	29234.4
572.265	29575.41
572.626	29667.38
572.987	29862.63
573.349	30166.13
573.71	30252
574.071	30485.44
574.432	30764.98
574.794	31004.07
575.155	31203.61
575.516	31078.87
575.877	31330.16
576.238	31311.41
576.599	31699.19
576.96	31808.12
577.32	31821.68
577.681	32001.79
578.042	32381.21
578.403	32195.9
578.763	32307.99
579.124	32379.63
579.485	32660.75
579.845	32854.87
580.206	32808.32
580.566	32930.8
580.927	33013.06
581.287	33074.53
581.648	33189.1
582.008	33197.01
582.368	33253.96
582.728	33372.82
583.089	33386.83
583.449	33429.54
583.809	33441.3
584.169	33578.24
584.529	33566.04
584.889	33886.93
585.249	33615.53
585.609	33573.27
585.969	33891.68
586.329	33634.96
586.688	33787.05
587.048	33621.18
587.408	33707.05
587.768	33691.01
588.127	33727.39
588.487	33691.23
588.846	34035.86
589.206	33733.94
589.565	33693.94
589.925	33867.27
590.284	33794.05
590.643	33863.43
591.003	33933.26
591.362	34069.08
591.721	33977.78
592.08	33881.96
592.44	34128.51
592.799	34022.75
593.158	34044.22
593.517	33949.08
593.876	33995.86
594.235	33953.6
594.593	33982.98
594.952	34052.35
595.311	34059.13
595.67	34121.05
596.029	34337.77
596.387	34331.89
596.746	34392.91
597.104	34228.62
597.463	34207.6
597.822	34530.31
598.18	34218.9
598.538	34091.45
598.897	34487.82
599.255	34190.65
599.613	34694.82
599.972	34493.47
600.33	34542.28
600.688	34531.44
601.046	34498.67
601.404	34629.74
601.762	34665.67
602.12	34851.43
602.478	34922.16
602.836	34905.44
603.194	34557.65
603.552	34739.34
603.91	34828.38
604.268	34856.85
604.625	34875.83
604.983	35090.97
605.341	34771.66
605.698	35015.27
606.056	35264.07
606.413	35111.08
606.771	35296.39
607.128	35222.94
607.485	35189.72
607.843	35148.82
608.2	35238.99
608.557	35483.28
608.914	35413.67
609.272	35555.14
609.629	35623.16
609.986	35801.91
610.343	35715.81
610.7	35948.8
611.057	35912.87
611.414	35754
611.771	35967.33
612.127	36025.86
612.484	36069.7
612.841	36151.06
613.198	36086.65
613.554	36126.87
613.911	36263.59
614.267	36471.05
614.624	36322.35
614.98	36410.48
615.337	36656.35
615.693	36470.37
616.05	36584.72
616.406	36759.17
616.762	36600.76
617.118	36527.77
617.475	36564.38
617.831	36923.92
618.187	36882.56
618.543	36864.03
618.899	37014.54
619.255	37048.43
619.611	37099.28
619.967	37101.99
620.323	37154.19
620.678	37033.97
621.034	36921.43
621.39	36892.05
621.746	37098.83
622.101	37324.13
622.457	37112.61
622.812	37377.24
623.168	37363.68
623.523	37307.41
623.879	37467.86
624.234	37261.76
624.589	37402.32
624.945	37451.36
625.3	37505.6
625.655	37522.32
626.01	37431.93
626.365	37427.86
626.72	37361.19
627.075	37264.7
627.43	37294.75
627.785	37304.7
628.14	37366.84
628.495	37382.89
628.85	37433.96
629.205	37262.44
629.559	37529.78
629.914	37243.46
630.269	37235.32
630.623	37141.76
630.978	37050.24
631.332	37168.43
631.687	37249.56
632.041	37027.19
632.396	37099.73
632.75	37113.97
633.104	37098.15
633.459	36862.22
633.813	36881.88
634.167	36995.78
634.521	36732.96
634.875	36798.72
635.229	36619.52
635.583	36509.92
635.937	36494.1
636.291	36514.44
636.645	36682.57
636.999	36461.56
637.352	36528.9
637.706	36240.32
638.06	36484.15
638.413	36401.67
638.767	36325.29
639.121	36331.39
639.474	36175.69
639.828	36087.33
640.181	36095.46
640.534	36220.66
640.888	36003.71
641.241	35824.96
641.594	35819.09
641.947	36139.08
642.301	35842.81
642.654	36000.55
643.007	35865.64
643.36	35923.04
643.713	35758.3
644.066	35888.24
644.419	35683.27
644.771	35226.33
645.124	34945.66
645.477	34929.17
645.83	34863.41
646.182	34860.92
646.535	34750.87
646.888	34910.41
647.24	34756.29
647.593	34956.74
647.945	34727.36
648.298	34598.78
648.65	34447.6
649.002	34275.62
649.355	34241.27
649.707	33905.92
650.059	33980.94
650.411	34446.47
650.763	34733.69
651.115	35351.75
651.467	35257.52
651.819	35045.1
652.171	35043.06
652.523	34980.01
652.875	35143.4
653.227	34890.3
653.578	35080.8
653.93	35106.34
654.282	34876.74
654.633	34920.8
654.985	34943.63
655.337	34942.73
655.688	34927.58
656.039	35040.35
656.391	34641.72
656.742	34775.95
657.094	34868.38
657.445	34801.26
657.796	34815.05
658.147	34830.41
658.498	34824.31
658.849	34953.8
659.2	34892.56
659.551	34799.23
659.902	34900.01
660.253	34772.56
660.604	34975.27
660.955	34739.57
661.306	34872.9
661.656	34719.68
662.007	34816.85
662.358	34817.3
662.708	34800.13
663.059	34873.8
663.409	34715.61
663.76	34944.76
664.11	34854.37
664.461	35080.57
664.811	35050.29
665.161	34878.32
665.511	34898.43
665.862	34857.08
666.212	34965.1
666.562	34916.74
666.912	34822.5
667.262	34709.51
667.612	34743.18
667.962	34835.61
668.312	34652.56
668.662	35059.56
669.011	34818.66
669.361	34770.98
669.711	34642.39
670.06	34633.35
670.41	34740.02
670.76	34607.59
671.109	34837.64
671.459	34556.97
671.808	34660.92
672.157	34850.98
672.507	34493.47
672.856	34602.17
673.205	34659.57
673.554	34637.2
673.904	34583.64
674.253	34837.87
674.602	34577.09
674.951	34105.69
675.3	33943.66
675.649	34489.18
675.998	34403.76
676.346	34580.93
676.695	34598.33
677.044	34260.48
677.393	34332.8
677.741	34425.9
678.09	34324.89
678.438	34166.93
678.787	34362.63
679.135	34248.28
679.484	33952.69
679.832	34196.98
680.181	34093.48
680.529	34045.35
680.877	33933.03
681.225	33933.26
681.573	34031.79
681.922	33914.96
682.27	33837.44
682.618	33941.17
682.966	33643.32
683.314	33664.57
683.661	33666.37
684.009	33392.26
684.357	33246.5
684.705	33349.32
685.053	33379.6
685.4	33224.8
685.748	33128.08
686.095	33139.16
686.443	32913.63
686.79	32938.26
687.138	33043.34
687.485	32965.38
687.832	32818.94
688.18	32750.47
688.527	32657.36
688.874	32477.25
689.221	32631.15
689.568	32402.45
689.915	32289.91
690.262	32219.18
690.609	32242.01
690.956	32080.43
691.303	32073.87
691.65	31885.63
691.997	31936.48
692.344	31682.25
692.69	31611.06
693.037	31725.41
693.383	31350.96
693.73	31414
694.077	31099.66
694.423	31191.64
694.769	31080
695.116	30916.62
695.462	30703.51
695.808	30745.1
696.155	30810.86
696.501	30570.64
696.847	30620.35
697.193	30403.86
697.539	30406.8
697.885	30136.52
698.231	30187.37
698.577	29968.39
698.923	30115.73
699.269	29798.91
699.614	29687.72
699.96	29612.24
700.306	29515.07
700.651	29385.58
700.997	29328.18
701.342	29223.78
701.688	29186.49
702.033	29003.45
702.379	29074.63
702.724	28887.52
703.069	29040.28
703.415	28598.71
703.76	28652.95
704.105	28600.07
704.45	28473.52
704.795	28411.37
705.14	28348.1
705.485	28355.78
705.83	28092.06
706.175	28223.13
706.52	28007.99
706.865	27884.38
707.209	27866.08
707.554	27832.63
707.899	27904.49
708.243	27739.3
708.588	27595.57
708.932	27459.08
709.277	27602.35
709.621	27390.83
709.966	27274
710.31	27330.72
710.654	27043.72
710.998	27210.27
711.342	27203.95
711.687	27118.07
712.031	27071.52
712.375	26996.72
712.719	26850.73
713.063	26873.78
713.407	27067.23
713.75	26826.33
714.094	26730.06
714.438	26642.38
714.782	26672.43
715.125	26451.42
715.469	26720.57
715.812	26376.62
716.156	26459.78
716.499	26350.41
716.843	26505.21
717.186	26284.65
717.53	26476.06
717.873	26475.38
718.216	26241.71
718.559	26259.34
718.902	26106.35
719.246	26160.13
719.589	26188.83
719.932	26055.73
720.275	26174.59
720.617	26077.87
720.96	26039.68
721.303	26068.61
721.646	26061.83
721.989	25961.49
722.331	25931.89
722.674	25838.78
723.016	25870.2
723.359	25753.36
723.701	25880.36
724.044	25767.6
724.386	25730.76
724.729	25827.48
725.071	25799.24
725.413	25718.79
725.755	25777.09
726.097	25638.56
726.439	25656.64
726.782	25604.21
727.124	25716.08
727.465	25751.33
727.807	25614.38
728.149	25532.8
728.491	25548.17
728.833	25566.25
729.175	25509.75
729.516	25396.99
729.858	25501.62
730.199	25584.33
730.541	25562.41
730.882	25484.22
731.224	25627.94
731.565	25466.14
731.906	25518.57
732.248	25448.06
732.589	25392.02
732.93	25400.38
733.271	25468.62
733.612	25392.24
733.953	25586.59
734.294	25426.59
734.635	25467.27
734.976	25574.84
735.317	25376.88
735.658	25447.83
735.999	25473.6
736.339	25459.13
736.68	25525.8
737.021	25530.54
737.361	25363.54
737.702	25522.18
738.042	25544.33
738.383	25607.83
738.723	25626.81
739.063	25397.44
739.404	25527.15
739.744	25539.81
740.084	25530.77
740.424	25691.9
740.764	25658
741.104	25701.39
741.444	25596.3
741.784	25599.92
742.124	25693.02
742.464	25704.32
742.804	25754.04
743.143	25597.21
743.483	25814.6
743.823	25731.44
744.162	25721.27
744.502	25815.96
744.841	25783.19
745.181	26049.63
745.52	25944.09
745.86	25951.32
746.199	25912
746.538	25951.55
746.877	26146.12
747.216	26136.18
747.556	26118.78
747.895	26272.67
748.234	26083.75
748.573	26360.8
748.911	26260.47
749.25	26314.25
749.589	26375.27
749.928	26509.73
750.267	26561.7
750.605	26475.38
750.944	26549.95
751.283	26609.61
751.621	26821.36
751.96	26737.52
752.298	26800.57
752.636	26886.44
752.975	26769.83
753.313	26913.33
753.651	27114.23
753.989	27024.29
754.327	27159.2
754.666	27019.54
755.004	27187.22
755.342	27271.74
755.679	27316.03
756.017	27217.73
756.355	27337.28
756.693	27263.61
757.031	27521.23
757.368	27484.39
757.706	27538.17
758.044	27591.96
758.381	27711.5
758.719	27615.23
759.056	27770.03
759.394	27630.15
759.731	27555.8
760.068	27611.62
760.405	27606.87
760.743	27549.02
761.08	27719.19
761.417	27674.44
761.754	27786.98
762.091	27760.54
762.428	27667.44
762.765	27635.57
763.102	27597.16
763.438	27654.33
763.775	27581.79
764.112	27725.06
764.449	27594.22
764.785	27689.58
765.122	27597.38
765.458	27530.94
765.795	27491.62
766.131	27493.43
766.467	27433.54
766.804	27305.19
767.14	27378.18
767.476	27258.41
767.812	27259.31
768.148	27239.65
768.485	27256.37
768.821	26931.64
769.157	27022.03
769.492	26922.6
769.828	27018.41
770.164	26877.17
770.5	26782.49
770.836	26936.83
771.171	26655.26
771.507	26587.92
771.842	26521.48
772.178	26598.99
772.513	26429.95
772.849	26354.25
773.184	26350.18
773.519	26242.62
773.855	26162.84
774.19	26097.76
774.525	25986.8
774.86	26031.77
775.195	25852.79
775.53	25850.53
775.865	25663.42
776.2	25510.43
776.535	25427.95
776.87	25445.12
777.205	25398.8
777.539	25202.87
777.874	25321.96
778.209	25116.54
778.543	25100.5
778.878	24877
779.212	24866.83
779.547	24776.21
779.881	24713.39
780.215	24645.82
780.55	24744.58
780.884	24459.39
781.218	24469.33
781.552	24527.63
781.886	24355.21
782.22	24243.12
782.554	24084.48
782.888	23914.31
783.222	23869.34
783.556	23836.58
783.889	23802.45
784.223	23693.98
784.557	23687.2
784.89	23680.87
785.224	23357.95
785.557	23344.84
785.891	23381
786.224	23255.8
786.558	23167.22
786.891	23042.02
787.224	22975.81
787.557	22885.87
787.891	22944.62
788.224	22821.69
788.557	22779.43
788.89	22682.03
789.223	22667.34
789.556	22492.43
789.888	22399.78
790.221	22326.56
790.554	22207.92
790.887	22195.94
791.219	22104.64
791.552	22045.21
791.884	21926.12
792.217	21813.35
792.549	21816.29
792.882	21628.27
793.214	21595.28
793.546	21675.96
793.879	21492.01
794.211	21365
794.543	21393.25
794.875	21356.64
795.207	21307.38
795.539	21241.16
795.871	21251.33
796.203	21037.78
796.535	20962.08
796.867	20929.76
797.198	20823.77
797.53	20835.3
797.862	20572.03
798.193	20688.86
798.525	20538.36
798.856	20625.14
799.188	20342.66
799.519	20299.49
799.85	20319.83
800.182	20344.92
800.513	20316.22
800.844	20022.89
801.175	20166.62
801.506	20143.11
801.837	20008.43
802.168	19974.08
802.499	19928.43
802.83	19733.18
803.161	19739.74
803.491	19765.27
803.822	19850.24
804.153	19592.62
804.483	19525.73
804.814	19400.99
805.145	19301.55
805.475	19478.73
805.805	19367.77
806.136	19389.24
806.466	19229.01
806.796	19170.03
807.126	19060.21
807.457	19054.56
807.787	19144.5
808.117	19076.7
808.447	18969.81
808.777	19081.22
809.107	18829.93
809.436	18810.04
809.766	18728.69
810.096	18743.6
810.426	18632.19
810.755	18707.9
811.085	18663.61
811.414	18625.87
811.744	18548.35
812.073	18451.18
812.403	18368.47
812.732	18323.73
813.061	18370.51
813.39	18310.17
813.719	18253.9
814.049	18289.15
814.378	18265.42
814.707	18120.34
815.036	18053.23
815.365	18051.87
815.693	17888.71
816.022	17989.27
816.351	17838.32
816.68	17727.81
817.008	17759.22
817.337	17726.23
817.665	17782.5
817.994	17634.48
818.322	17731.2
818.651	17667.93
818.979	17500.7
819.307	17564.88
819.636	17490.98
819.964	17375.5
820.292	17443.07
820.62	17476.74
820.948	17423.64
821.276	17501.6
821.604	17369.63
821.932	17487.37
822.259	17434.71
822.587	17499.57
822.915	17444.88
823.243	17490.53
823.57	17333.24
823.898	17502.51
824.225	17475.39
824.553	17422.06
824.88	17514.71
825.207	17487.59
825.535	17366.46
825.862	17407.82
826.189	17395.84
826.516	17530.98
826.843	17449.4
827.17	17502.05
827.497	17372.11
827.824	17526.23
828.151	17484.65
828.478	17481.49
828.805	17550.41
829.131	17438.78
829.458	17420.25
829.785	17405.11
830.111	17424.77
830.438	17550.64
830.764	17365.11
831.09	17377.54
831.417	17276.75
831.743	17422.28
832.069	17389.97
832.395	17335.28
832.722	17307.26
833.048	17356.75
833.374	17416.18
833.7	17321.27
834.026	17356.97
834.351	17239.91
834.677	17289.86
835.003	17181.16
835.329	17298.44
835.654	17298.67
835.98	17183.64
836.306	17278.56
836.631	17199.01
836.956	17274.94
837.282	17300.93
837.607	17163.76
837.932	17209.86
838.258	17078.34
838.583	17065
838.908	17072.01
839.233	17091.44
839.558	17040.37
839.883	16917.89
840.208	16860.04
840.533	16963.76
840.858	16966.47
841.182	16952.69
841.507	16852.58
841.832	16775.97
842.156	16771.23
842.481	16629.08
842.805	16725.35
843.13	16601.06
843.454	16584.56
843.778	16518.35
844.103	16513.15
844.427	16540.5
844.751	16462.99
845.075	16435.87
845.399	16346.6
845.723	16314.97
846.047	16370.33
846.371	16284.91
846.695	16166.27
847.019	16076.1
847.343	16035.43
847.666	16045.6
847.99	15914.98
848.313	15888.09
848.637	15837.92
848.96	15803.34
849.284	15764.92
849.607	15546.63
849.931	15643.57
850.254	15545.72
850.577	15308.44
850.9	15305.95
851.223	15328.78
851.546	15289.46
851.869	15149.35
852.192	15204.71
852.515	14997.71
852.838	15042.68
853.161	14979.63
853.483	14913.87
853.806	14937.15
854.129	14835.91
854.451	14826.87
854.774	14699.42
855.096	14800.43
855.419	14660.55
855.741	14643.6
856.063	14520.44
856.385	14512.98
856.708	14482.25
857.03	14481.79
857.352	14443.15
857.674	14416.94
857.996	14294.45
858.318	14235.7
858.64	14185.53
858.961	14174.46
859.283	14113.89
859.605	14095.36
859.926	13980.79
860.248	14034.57
860.57	13964.29
860.891	13987.8
861.212	13948.7
861.534	13819.21
861.855	13851.53
862.176	13848.59
862.498	13821.25
862.819	13811.98
863.14	13716.16
863.461	13721.59
863.782	13601.14
864.103	13665.54
864.424	13578.32
864.745	13644.3
865.065	13483.4
865.386	13470.97
865.707	13575.38
866.027	13516.85
866.348	13494.7
866.668	13469.39
866.989	13410.64
867.309	13392.56
867.63	13399.11
867.95	13339.23
868.27	13262.17
868.59	13335.84
868.91	13272.79
869.23	13290.87
869.55	13187.37
869.87	13266.91
870.19	13164.54
870.51	13157.99
870.83	13110.98
871.15	13099.46
871.469	13130.64
871.789	13141.26
872.109	13109.4
872.428	13084.32
872.748	13103.3
873.067	13028.95
873.386	13042.74
873.706	13083.87
874.025	12998.67
874.344	12877.54
874.663	12959.57
874.982	12863.08
875.301	12875.51
875.62	12761.39
875.939	12769.52
876.258	12837.54
876.577	12684.33
876.896	12800.71
877.214	12748.51
877.533	12722.52
877.852	12691.33
878.17	12649.75
878.489	12768.85
878.807	12621.28
879.125	12702.63
879.444	12605.69
879.762	12551.22
880.08	12559.36
880.398	12465.8
880.716	12490.21
881.034	12444.56
881.352	12395.07
881.67	12439.14
881.988	12422.41
882.306	12384.67
882.624	12323.21
882.941	12304.45
883.259	12285.92
883.577	12314.62
883.894	12237.56
884.212	12216.77
884.529	12179.03
884.846	12121.4
885.164	12053.38
885.481	12115.75
885.798	12153.95
886.115	12073.5
886.432	11971.8
886.75	12035.98
887.067	12073.5
887.383	11913.27
887.7	11904.91
888.017	11903.56
888.334	11803.9
888.651	11720.06
888.967	11794.18
889.284	11682.55
889.6	11746.05
889.917	11657.69
890.233	11621.3
890.55	11640.06
890.866	11613.4
891.182	11518.93
891.498	11595.32
891.815	11490.91
892.131	11471.7
892.447	11411.82
892.763	11381.99
893.079	11369.56
893.395	11370.01
893.71	11290.69
894.026	11286.62
894.342	11307.64
894.657	11131.6
894.973	11240.52
895.289	11159.62
895.604	11106.29
895.92	11057.93
896.235	11075.33
896.55	11050.02
896.865	11037.59
897.181	10943.36
897.496	10982.23
897.811	10811.61
898.126	10805.05
898.441	10769.58
898.756	10793.98
899.071	10714.21
899.386	10783.13
899.7	10665.62
900.015	10650.71
900.33	10565.51
900.644	10553.54
900.959	10544.72
901.273	10486.65
901.588	10462.69
901.902	10474.89
902.216	10341.79
902.531	10276.48
902.845	10341.11
903.159	10199.42
903.473	10181.34
903.787	10089.37
904.101	10041.01
904.415	10118.29
904.729	10078.52
905.042	10017.05
905.356	10001.01
905.67	10003.95
905.984	9929.82
906.297	9944.74
906.611	9804.18
906.924	9786.78
907.237	9740.68
907.551	9755.36
907.864	9641.24
908.177	9664.75
908.491	9595.37
908.804	9548.59
909.117	9582.04
909.43	9449.38
909.743	9458.42
910.056	9451.19
910.368	9345.66
910.681	9351.31
910.994	9317.64
911.307	9306.34
911.619	9278.09
911.932	9269.95
912.244	9178.88
912.557	9137.53
912.869	9113.12
913.181	9030.64
913.494	9074.25
913.806	9013.01
914.118	8952
914.43	8941.83
914.742	8932.34
915.054	8833.36
915.366	8793.13
915.678	8770.08
915.99	8734.83
916.302	8663.87
916.613	8613.93
916.925	8679.01
917.236	8589.07
917.548	8528.73
917.859	8588.62
918.171	8461.84
918.482	8435.63
918.794	8473.82
919.105	8398.11
919.416	8351.11
919.727	8323.99
920.038	8261.17
920.349	8289.19
920.66	8225.24
920.971	8186.14
921.282	8124.22
921.593	8112.24
921.903	8078.8
922.214	8052.36
922.525	7938.01
922.835	8008.07
923.146	7885.58
923.456	7896.66
923.767	7789.54
924.077	7916.09
924.387	7885.81
924.697	7782.54
925.008	7754.74
925.318	7698.92
925.628	7738.24
925.938	7708.41
926.248	7652.82
926.558	7566.27
926.867	7519.04
927.177	7540.73
927.487	7459.15
927.796	7453.05
928.106	7440.85
928.416	7343.22
928.725	7371.02
929.034	7361.3
929.344	7331.25
929.653	7292.83
929.962	7227.52
930.271	7175.32
930.581	7183.91
930.89	7117.02
931.199	7107.75
931.508	7078.6
931.817	7108.2
932.125	7077.24
932.434	7028.66
932.743	6971.03
933.051	6982.56
933.36	6860.75
933.669	6865.5
933.977	6839.74
934.286	6794.54
934.594	6751.15
934.902	6784.14
935.21	6757.7
935.519	6750.02
935.827	6698.72
936.135	6612.17
936.443	6635
936.751	6575.79
937.059	6579.86
937.367	6479.07
937.674	6543.02
937.982	6466.64
938.29	6453.3
938.597	6463.47
938.905	6346.42
939.213	6381.67
939.52	6341.9
939.827	6383.48
940.135	6310.71
940.442	6288.56
940.749	6305.96
941.056	6225.74
941.363	6184.84
941.67	6138.74
941.977	6148
942.284	6095.57
942.591	6139.19
942.898	6096.7
943.205	6034.56
943.511	5953.43
943.818	5992.07
944.125	5940.32
944.431	5950.95
944.738	5926.54
945.044	5905.07
945.35	5898.74
945.657	5819.65
945.963	5817.16
946.269	5773.55
946.575	5781.23
946.881	5745.98
947.187	5765.87
947.493	5705.53
947.799	5644.74
948.105	5621.91
948.41	5629.82
948.716	5603.61
949.022	5587.56
949.327	5571.07
949.633	5497.17
949.938	5478.87
950.244	5496.95
950.549	5459.21
950.854	5434.8
951.16	5409.94
951.465	5437.29
951.77	5333.79
952.075	5375.59
952.38	5327.68
952.685	5343.96
952.99	5251.08
953.294	5276.84
953.599	5203.39
953.904	5192.32
954.209	5101.7
954.513	5155.71
954.818	5108.93
955.122	5108.03
955.426	5077.07
955.731	5055.38
956.035	5021.03
956.339	5047.92
956.643	4951.65
956.948	4954.14
957.252	4970.41
957.556	4928.6
957.86	4973.8
958.163	4870.3
958.467	4905.1
958.771	4842.95
959.075	4849.96
959.378	4763.18
959.682	4815.61
959.985	4747.81
960.289	4758.43
960.592	4676.63
960.896	4666.46
961.199	4702.16
961.502	4661.94
961.805	4657.65
962.108	4642.28
962.411	4626.69
962.714	4561.15
963.017	4554.82
963.32	4552.11
963.623	4478.22
963.926	4494.26
964.228	4486.35
964.531	4460.81
964.833	4464.88
965.136	4430.76
965.438	4416.07
965.741	4353.02
966.043	4377.88
966.345	4304.43
966.648	4284.32
966.95	4330.65
967.252	4275.96
967.554	4303.3
967.856	4275.51
968.158	4220.37
968.46	4233.02
968.761	4185.12
969.063	4169.52
969.365	4115.97
969.666	4137.21
969.968	4140.6
970.269	4134.5
970.571	4093.14
970.872	4078.9
971.174	4041.39
971.475	4015.4
971.776	4020.83
972.077	4053.37
972.378	3978.57
972.679	3928.63
972.98	3977.89
973.281	3981.05
973.582	3919.36
973.883	3939.02
974.183	3889.3
974.484	3895.63
974.785	3839.59
975.085	3836.65
975.386	3822.87
975.686	3805.46
975.986	3756.88
976.287	3781.74
976.587	3760.04
976.887	3743.32
977.187	3725.02
977.487	3694.73
977.787	3692.25
978.087	3695.86
978.387	3673.49
978.687	3655.41
978.987	3638.24
979.286	3593.27
979.586	3558.92
979.885	3575.87
980.185	3563.21
980.484	3573.38
980.784	3542.65
981.083	3532.03
981.382	3507.85
981.682	3493.16
981.981	3468.98
982.28	3456.55
982.579	3433.95
982.878	3427.4
983.177	3452.48
983.475	3388.98
983.774	3418.58
984.073	3355.31
984.372	3341.97
984.67	3333.61
984.969	3287.74
985.267	3302.88
985.566	3307.85
985.864	3293.84
986.162	3298.36
986.461	3309.43
986.759	3216.1
987.057	3206.84
987.355	3215.65
987.653	3200.96
987.951	3184.24
988.249	3208.87
988.547	3123.45
988.844	3144.69
989.142	3099.27
989.44	3114.64
989.737	3041.87
990.035	3095.43
990.332	3071.92
990.63	3035.54
990.927	3019.72
991.224	3019.27
991.521	2969.33
991.819	2999.61
992.116	2951.93
992.413	2968.42
992.71	2935.66
993.006	2934.53
993.303	2903.12
993.6	2901.08
993.897	2891.14
994.193	2900.18
994.49	2909.9
994.787	2851.59
995.083	2833.74
995.379	2851.82
995.676	2812.5
995.972	2786.28
996.268	2792.16
996.565	2757.81
996.861	2758.71
997.157	2754.87
997.453	2727.98
997.749	2726.17
998.044	2727.53
998.34	2705.83
998.636	2686.17
998.932	2634.2
999.227	2642.56
999.523	2640.3
999.818	2634.42
1000.114	2596.01
1000.409	2603.01
1000.704	2589.23
1001	2581.54
1001.295	2559.4
1001.59	2526.63
1001.885	2540.87
1002.18	2514.2
1002.475	2471.49
1002.77	2494.54
1003.065	2437.59
1003.359	2469.68
1003.654	2469.91
1003.949	2389.23
1004.243	2426.74
1004.538	2399.85
1004.832	2420.42
1005.127	2342
1005.421	2337.93
1005.715	2359.85
1006.009	2356.46
1006.304	2328.44
1006.598	2311.04
1006.892	2308.1
1007.186	2284.83
1007.48	2276.69
1007.773	2263.81
1008.067	2275.56
1008.361	2238.27
1008.655	2226.98
1008.948	2150.14
1009.242	2167.54
1009.535	2203.25
1009.829	2185.39
1010.122	2167.09
1010.415	2092.29
1010.708	2145.62
1011.001	2113.53
1011.295	2103.59
1011.588	2089.8
1011.881	2080.99
1012.173	2053.87
1012.466	2052.97
1012.759	2005.51
1013.052	2066.08
1013.344	2022.23
1013.637	2017.94
1013.93	1991.05
1014.222	1988.79
1014.514	1973.2
1014.807	1982.01
1015.099	1965.97
1015.391	1920.77
1015.683	1928.45
1015.976	1938.85
1016.268	1877.61
1016.56	1902.01
1016.851	1860.21
1017.143	1849.13
1017.435	1860.66
1017.727	1835.12
1018.018	1828.57
1018.31	1836.48
1018.602	1836.48
1018.893	1805.97
1019.185	1780.43
1019.476	1727.55
1019.767	1773.65
1020.058	1761.22
1020.35	1748.8
1020.641	1731.17
1020.932	1735.24
1021.223	1691.4
1021.514	1709.25
1021.804	1681.45
1022.095	1663.15
1022.386	1650.72
1022.677	1643.71
1022.967	1593.09
1023.258	1614.11
1023.548	1628.12
1023.839	1586.31
1024.129	1605.3
1024.419	1572.76
1024.709	1579.99
1025	1566.2
1025.29	1543.15
1025.58	1549.93
1025.87	1504.28
1026.16	1508.58
1026.449	1519.42
1026.739	1516.49
1027.029	1498.41
1027.319	1446.2
1027.608	1477.16
1027.898	1479.2
1028.187	1456.37
1028.477	1480.1
1028.766	1438.07
1029.055	1416.38
1029.344	1417.96
1029.634	1404.4
1029.923	1377.05
1030.212	1378.64
1030.501	1387
1030.79	1374.79
1031.078	1371.4
1031.367	1315.59
1031.656	1353.55
1031.945	1354.91
1032.233	1329.37
1032.522	1302.48
1032.81	1286.66
1033.099	1291.41
1033.387	1259.54
1033.675	1275.59
1033.963	1270.62
1034.251	1260.45
1034.54	1269.49
1034.828	1261.8
1035.116	1237.17
1035.403	1255.93
1035.691	1237.4
1035.979	1215.25
1036.267	1228.13
1036.554	1208.7
1036.842	1182.71
1037.129	1184.29
1037.417	1177.96
1037.704	1155.37
1037.992	1168.47
1038.279	1151.52
1038.566	1165.53
1038.853	1165.53
1039.14	1165.53
