Data from 5405_FLMS001491_009.txt Node
Date: Thu Apr 19 16:38:29 BST 2018
User: hsy
Spectrometer: FLMS00149
Trigger mode: 0
Integration Time (sec): 1.000000E-2
Scans to average: 10
Electric dark correction enabled: true
Nonlinearity correction enabled: false
Boxcar width: 0
XAxis mode: Wavelengths
Number of Pixels in Spectrum: 2048
>>>>>Begin Spectral Data<<<<<
341.393	9.24
341.776	9.24
342.16	9.24
342.543	-54.04
342.927	-73.92
343.31	-62.17
343.693	-82.29
344.077	-76.18
344.46	-59.91
344.843	-39.58
345.226	-43.64
345.61	-35.73
345.993	-17.43
346.376	6.3
346.759	6.98
347.142	6.53
347.525	53.76
347.908	47.88
348.291	72.96
348.674	103.92
349.057	118.61
349.44	133.08
349.823	146.63
350.206	167.42
350.588	217.59
350.971	215.79
351.354	269.34
351.737	255.56
352.119	273.86
352.502	267.76
352.884	300.3
353.267	295.11
353.65	335.56
354.032	324.03
354.414	334.65
354.797	329
355.179	336.23
355.562	343.69
355.944	360.87
356.326	366.52
356.709	350.92
357.091	340.98
357.473	349.34
357.855	369
358.238	367.87
358.62	369.45
359.002	380.75
359.384	362.22
359.766	362
360.148	380.75
360.53	355.22
360.912	366.06
361.294	363.58
361.676	371.71
362.057	376.69
362.439	366.97
362.821	370.13
363.203	353.86
363.584	375.78
363.966	370.36
364.348	370.58
364.729	371.71
365.111	332.39
365.493	366.29
365.874	351.83
366.256	353.18
366.637	345.27
367.019	363.35
367.4	366.29
367.781	365.16
368.163	362
368.544	365.84
368.925	335.33
369.306	362.22
369.688	364.48
370.069	362.9
370.45	347.08
370.831	380.07
371.212	354.31
371.593	362.45
371.974	361.54
372.355	340.3
372.736	346.86
373.117	365.39
373.498	369
373.879	367.42
374.26	365.84
374.641	371.71
375.021	360.64
375.402	375.56
375.783	376.23
376.163	401.09
376.544	386.18
376.925	387.53
377.305	383.92
377.686	400.41
378.066	370.81
378.447	384.37
378.827	421.66
379.208	390.92
379.588	395.22
379.968	413.29
380.349	385.27
380.729	417.36
381.109	400.87
381.489	412.62
381.87	406.29
382.25	419.4
382.63	405.16
383.01	440.41
383.39	387.08
383.77	430.69
384.15	420.53
384.53	431.15
384.91	440.64
385.29	418.27
385.67	426.4
386.049	419.4
386.429	427.31
386.809	437.7
387.189	444.93
387.568	450.58
387.948	449
388.328	451.94
388.707	487.19
389.087	487.42
389.466	472.28
389.846	460.98
390.225	482.67
390.605	481.54
390.984	459.62
391.363	485.83
391.743	476.8
392.122	471.82
392.501	482.9
392.881	493.07
393.26	496
393.639	510.92
394.018	493.52
394.397	500.07
394.776	529.45
395.155	517.7
395.534	514.31
395.913	545.49
396.292	522.67
396.671	538.71
397.05	522.67
397.429	534.87
397.808	549.79
398.186	539.39
398.565	540.97
398.944	559.51
399.323	567.41
399.701	558.83
400.08	564.48
400.458	580.97
400.837	592.95
401.215	565.15
401.594	572.16
401.972	585.95
402.351	588.2
402.729	595.44
403.107	613.51
403.486	588.88
403.864	612.84
404.242	620.52
404.62	621.65
404.999	606.28
405.377	623.68
405.755	636.11
406.133	648.54
406.511	664.14
406.889	671.14
407.267	654.87
407.645	664.14
408.023	694.64
408.401	694.42
408.779	695.32
409.156	712.72
409.534	706.39
409.912	732.61
410.29	734.42
410.667	704.81
411.045	764.7
411.422	730.12
411.8	758.82
412.178	768.77
412.555	761.99
412.933	799.5
413.31	792.27
413.687	794.75
414.065	830.01
414.442	821.65
414.819	853.28
415.197	808.09
415.574	862.1
415.951	840.4
416.328	872.04
416.705	864.13
417.082	857.58
417.46	869.33
417.837	873.17
418.214	889.89
418.591	899.16
418.967	872.72
419.344	922.21
419.721	907.52
420.098	899.84
420.475	901.42
420.852	937.8
421.228	971.92
421.605	958.82
421.982	965.82
422.358	971.7
422.735	990
423.111	1038.14
423.488	1037.68
423.864	1016.44
424.241	1023.67
424.617	1033.62
424.994	1048.08
425.37	1043.79
425.746	1062.32
426.123	1071.81
426.499	1111.35
426.875	1094.86
427.251	1129.66
427.627	1127.63
428.003	1155.65
428.379	1145.93
428.756	1148.64
429.132	1183.44
429.507	1190.45
429.883	1201.07
430.259	1224.57
430.635	1247.4
431.011	1254.85
431.387	1268.41
431.763	1306.83
432.138	1279.03
432.514	1276.1
432.89	1318.58
433.265	1334.4
433.641	1366.72
434.016	1369.43
434.392	1388.86
434.767	1411.46
435.143	1406.71
435.518	1425.7
435.894	1450.1
436.269	1481.06
436.644	1484
437.02	1507.28
437.395	1530.78
437.77	1545.24
438.145	1554.06
438.52	1578.91
438.895	1587.5
439.271	1548.18
439.646	1615.07
440.021	1639.7
440.395	1648.29
440.77	1650.32
441.145	1645.35
441.52	1681.28
441.895	1686.26
442.27	1698.46
442.645	1694.39
443.019	1714.5
443.394	1730.55
443.769	1702.07
444.143	1735.97
444.518	1756.76
444.892	1747.04
445.267	1780.72
445.641	1797.66
446.016	1816.87
446.39	1815.07
446.764	1829.53
447.139	1826.82
447.513	1847.83
447.887	1846.02
448.262	1888.28
448.636	1870.21
449.01	1925.57
449.384	1931.67
449.758	1927.38
450.132	1959.24
450.506	1925.8
450.88	1974.38
451.254	1961.05
451.628	2017.32
452.002	1995.17
452.376	2088.5
452.75	2099.13
453.123	2061.84
453.497	2117.2
453.871	2109.75
454.244	2169.86
454.618	2166.92
454.992	2196.98
455.365	2197.65
455.739	2257.54
456.112	2272
456.486	2300.25
456.859	2310.42
457.232	2386.58
457.606	2386.58
457.979	2408.5
458.352	2441.94
458.725	2493.24
459.099	2476.52
459.472	2514.93
459.845	2574.82
460.218	2571.43
460.591	2625.67
460.964	2658.66
461.337	2671.99
461.71	2718.54
462.083	2743.4
462.456	2763.06
462.829	2781.59
463.201	2825.43
463.574	2834.7
463.947	2847.35
464.32	2926.22
464.692	2942.04
465.065	2980.46
465.438	2997.86
465.81	3052.32
466.183	3032.89
466.555	3105.43
466.928	3134.13
467.3	3104.52
467.672	3174.58
468.045	3236.5
468.417	3231.75
468.789	3296.38
469.161	3297.51
469.534	3355.82
469.906	3439.88
470.278	3408.7
470.65	3458.86
471.022	3582.25
471.394	3586.32
471.766	3621.57
472.138	3629.25
472.51	3727.11
472.882	3770.27
473.253	3806.43
473.625	3865.18
473.997	3933.65
474.369	3953.09
474.74	4012.3
475.112	4065.63
475.484	4091.62
475.855	4161.9
476.227	4215.45
476.598	4372.74
476.97	4393.08
477.341	4500.87
477.713	4521.43
478.084	4532.28
478.455	4637.36
478.827	4715.1
479.198	4830.81
479.569	4848.43
479.94	4958.26
480.311	5000.74
480.682	5098.59
481.053	5267.86
481.424	5312.6
481.795	5353.05
482.166	5435.76
482.537	5507.62
482.908	5574.97
483.279	5662.87
483.65	5788.75
484.021	5898.35
484.391	5885.01
484.762	6064.22
485.133	6106.93
485.503	6124.1
485.874	6308.73
486.244	6372.46
486.615	6470.08
486.985	6566.58
487.356	6650.64
487.726	6692.45
488.097	6848.38
488.467	6863.75
488.837	6993.69
489.207	7099.67
489.578	7215.83
489.948	7314.36
490.318	7379.66
490.688	7456.5
491.058	7587.79
491.428	7651.3
491.798	7748.69
492.168	7862.82
492.538	7913.89
492.908	8028.24
493.278	8169.7
493.648	8162.24
494.017	8269.36
494.387	8326.53
494.757	8404.72
495.126	8510.03
495.496	8638.39
495.866	8632.74
496.235	8736.92
496.605	8819.17
496.974	8895.56
497.344	8954.54
497.713	9019.62
498.082	9011.71
498.452	9140.07
498.821	9195.21
499.19	9279.05
499.559	9275.43
499.928	9480.85
500.298	9388.65
500.667	9536.67
501.036	9529.66
501.405	9613.05
501.774	9636.33
502.143	9729.43
502.512	9740.51
502.88	9843.78
503.249	9867.28
503.618	9985.47
503.987	9955.87
504.356	9996.32
504.724	10129.65
505.093	10172.36
505.462	10218.46
505.83	10298.01
506.199	10375.52
506.567	10489.19
506.936	10435.86
507.304	10564.67
507.672	10661.39
508.041	10700.93
508.409	10768.05
508.777	10884.43
509.145	10981.6
509.514	10933.92
509.882	10953.81
510.25	11032.68
510.618	11112.22
510.986	11186.34
511.354	11304.76
511.722	11410.52
512.09	11535.71
512.458	11508.37
512.826	11626.11
513.193	11554.7
513.561	11683.73
513.929	11821.58
514.297	11894.8
514.664	11896.83
515.032	12013.44
515.4	12108.58
515.767	12191.52
516.135	12274
516.502	12215.47
516.869	12385.63
517.237	12459.08
517.604	12423.83
517.972	12748.56
518.339	12755.57
518.706	12762.12
519.073	12814.55
519.44	12920.08
519.808	13097.71
520.175	13118.5
520.542	13237.59
520.909	13378.38
521.276	13387.42
521.643	13528.88
522.009	13591.93
522.376	13652.95
522.743	13765.94
523.11	13981.98
523.477	14055.87
523.843	14132.71
524.21	14357.56
524.577	14424
524.943	14457.44
525.31	14609.76
525.676	14726.59
526.043	14837.77
526.409	14929.52
526.776	15120.48
527.142	15096.75
527.508	15197.09
527.874	15340.59
528.241	15421.94
528.607	15499.23
528.973	15655.38
529.339	15612.44
529.705	15901.93
530.071	15996.84
530.437	16092.66
530.803	16134.69
531.169	16247.91
531.535	16303.27
531.901	16328.58
532.267	16375.81
532.632	16488.58
532.998	16633.21
533.364	16711.17
533.73	16752.98
534.095	16846.53
534.461	16897.61
534.826	16987.55
535.192	17126.08
535.557	17097.15
535.923	17179.86
536.288	17326.97
536.653	17338.72
537.019	17422.79
537.384	17422.79
537.749	17531.49
538.114	17445.84
538.479	17498.27
538.845	17621.43
539.21	17580.07
539.575	17722.22
539.94	17756.12
540.305	17884.02
540.67	17971.7
541.034	17902.55
541.399	17987.52
541.764	17986.17
542.129	18012.38
542.494	18129.66
542.858	18246.5
543.223	18119.27
543.587	18227.29
543.952	18271.13
544.316	18370.56
544.681	18297.34
545.045	18430.67
545.41	18457.11
545.774	18463.22
546.138	18513.16
546.503	18542.08
546.867	18502.76
547.231	18622.98
547.595	18713.6
547.959	18792.02
548.324	18780.04
548.688	18764.45
549.052	18854.84
549.416	18825.01
549.779	18909.98
550.143	18892.36
550.507	19036.76
550.871	19140.03
551.235	19072.01
551.599	19304.55
551.962	19228.39
552.326	19300.48
552.689	19356.98
553.053	19227.26
553.417	19429.52
553.78	19596.97
554.143	19604.88
554.507	19639.91
554.87	19608.95
555.234	19780.02
555.597	19666.35
555.96	19836.96
556.323	19890.97
556.686	19982.72
557.05	20102.72
557.413	20140.01
557.776	20114.92
558.139	20293
558.502	20290.06
558.865	20338.19
559.228	20488.02
559.59	20542.71
559.953	20679.65
560.316	20857.73
560.679	20869.25
561.041	21014.56
561.404	21081.9
561.767	21248.45
562.129	21098.63
562.492	21295.23
562.854	21411.84
563.217	21507.65
563.579	21444.38
563.941	21702
564.304	21842.11
564.666	22141.54
565.028	22163.68
565.39	22185.83
565.753	22363.68
566.115	22467.4
566.477	22645.93
566.839	22755.31
567.201	23073.72
567.563	23067.16
567.925	23189.87
568.287	23268.74
568.648	23348.06
569.01	23514.16
569.372	23789.85
569.734	23879.34
570.095	23986.01
570.457	24154.14
570.819	24196.85
571.18	24362.5
571.542	24493.11
571.903	24598.42
572.265	24757.96
572.626	25029.37
572.987	25015.36
573.349	25257.16
573.71	25489.02
574.071	25476.14
574.432	25726.98
574.794	25960.87
575.155	26023.69
575.516	26120.19
575.877	26354.08
576.238	26260.98
576.599	26370.35
576.96	26520.86
577.32	26636.79
577.681	26757.23
578.042	26999.26
578.403	27078.81
578.763	27058.7
579.124	27134.85
579.485	27243.32
579.845	27446.48
580.206	27465.69
580.566	27645.8
580.927	27474.05
581.287	27760.6
581.648	27659.13
582.008	27804.89
582.368	27879.92
582.728	27897.32
583.089	27838.34
583.449	27887.83
583.809	27974.15
584.169	28027.48
584.529	27949.97
584.889	28257.53
585.249	28142.06
585.609	28026.13
585.969	28204.43
586.329	28164.88
586.688	28265.67
587.048	28284.2
587.408	28275.61
587.768	28235.84
588.127	28378.66
588.487	28250.08
588.846	28516.06
589.206	28250.98
589.565	28357.19
589.925	28540.92
590.284	28341.6
590.643	28354.25
591.003	28449.62
591.362	28551.09
591.721	28535.04
592.08	28523.52
592.44	28703.4
592.799	28620.01
593.158	28624.3
593.517	28624.3
593.876	28649.16
594.235	28667.69
594.593	28629.95
594.952	28734.13
595.311	28758.76
595.67	28828.37
596.029	28847.8
596.387	28952.43
596.746	28967.57
597.104	28871.53
597.463	28912.43
597.822	28995.59
598.18	28973.67
598.538	28958.31
598.897	29067.46
599.255	28999.44
599.613	29274.91
599.972	29141.8
600.33	29280.33
600.688	29213.44
601.046	29269.03
601.404	29498.18
601.762	29259.32
602.12	29458.86
602.478	29492.98
602.836	29554.67
603.194	29326.21
603.552	29566.88
603.91	29510.61
604.268	29624.5
604.625	29713.31
604.983	29838.28
605.341	29629.48
605.698	29749.47
606.056	29809.58
606.413	29792.63
606.771	29946.53
607.128	29909.92
607.485	29884.84
607.843	29912.86
608.2	30060.2
608.557	30149.46
608.914	30042.12
609.272	30257.03
609.629	30339.96
609.986	30470.81
610.343	30321.43
610.7	30618.83
611.057	30490.47
611.414	30484.14
611.771	30502.67
612.127	30657.02
612.484	30713.06
612.841	30715.32
613.198	30697.24
613.554	30697.24
613.911	30899.95
614.267	30825.6
614.624	30831.48
614.98	30862.21
615.337	31226.04
615.693	31181.52
616.05	31040.06
616.406	31300.84
616.762	31233.73
617.118	31298.13
617.475	31155.76
617.831	31345.59
618.187	31388.52
618.543	31450.67
618.899	31534.06
619.255	31502.19
619.611	31440.28
619.967	31705.8
620.323	31727.05
620.678	31617.22
621.034	31574.96
621.39	31592.14
621.746	31571.12
622.101	31889.08
622.457	31707.84
622.812	31785.35
623.168	31825.8
623.523	31909.19
623.879	31962.07
624.234	31753.71
624.589	31820.6
624.945	31856.08
625.3	31939.7
625.655	31997.77
626.01	31861.51
626.365	32052.91
626.72	31881.39
627.075	31838.23
627.43	31719.14
627.785	31940.6
628.14	31844.11
628.495	31787.61
628.85	32010.88
629.205	31892.01
629.559	31874.61
629.914	31805.01
630.269	31910.77
630.623	31720.95
630.978	31664.9
631.332	31989.19
631.687	31802.75
632.041	31792.13
632.396	31786.03
632.75	31591.46
633.104	31716.65
633.459	31450.22
633.813	31517.11
634.167	31515.98
634.521	31402.54
634.875	31536.77
635.229	31277.79
635.583	31341.29
635.937	31213.39
636.291	31176.55
636.645	31226.27
636.999	31089.55
637.352	31212.26
637.706	31001.64
638.06	31140.85
638.413	30996.9
638.767	30975.65
639.121	31178.81
639.474	30939.95
639.828	30954.64
640.181	30852.95
640.534	30966.39
640.888	30864.47
641.241	30657.47
641.594	30666.28
641.947	30775.89
642.301	30669.45
642.654	30670.35
643.007	30552.16
643.36	30700.63
643.713	30654.08
644.066	30756
644.419	30471.03
644.771	30205.96
645.124	29842.58
645.477	29899.52
645.83	29863.14
646.182	29752.41
646.535	29671.51
646.888	29785.18
647.24	29810.94
647.593	29837.38
647.945	29793.76
648.298	29669.25
648.65	29505.64
649.002	29390.84
649.355	29224.29
649.707	29088.25
650.059	29167.57
650.411	29565.07
650.763	29738.62
651.115	30274.2
651.467	30091.16
651.819	30089.35
652.171	29978.17
652.523	30022.23
652.875	30056.36
653.227	29836.48
653.578	30156.47
653.93	29989.24
654.282	29977.94
654.633	29891.16
654.985	29944.95
655.337	29843.03
655.688	29853.42
656.039	30008.22
656.391	29683.03
656.742	29853.65
657.094	29736.14
657.445	29726.2
657.796	29754.44
658.147	29737.27
658.498	29805.52
658.849	29783.6
659.2	29713.31
659.551	29721
659.902	29846.64
660.253	29784.5
660.604	29816.81
660.955	29808
661.306	29950.14
661.656	29820.2
662.007	29696.14
662.358	29728.68
662.708	29900.43
663.059	29712.64
663.409	29664.73
663.76	29841.22
664.11	29935.23
664.461	29945.85
664.811	29928.9
665.161	29859.53
665.511	29885.29
665.862	29804.84
666.212	29784.05
666.562	29918.73
666.912	29709.25
667.262	29796.02
667.612	29929.13
667.962	29853.2
668.312	29772.52
668.662	30104.94
669.011	29788.57
669.361	29869.02
669.711	29790.37
670.06	29783.37
670.41	29712.64
670.76	29726.2
671.109	29850.94
671.459	29859.3
671.808	29775.91
672.157	29749.92
672.507	29646.88
672.856	29487.56
673.205	29690.72
673.554	29757.83
673.904	29509.03
674.253	29894.55
674.602	29517.84
674.951	29154.91
675.3	28993.33
675.649	29519.2
675.998	29467.45
676.346	29535.24
676.695	29532.53
677.044	29370.5
677.393	29577.27
677.741	29416.15
678.09	29476.03
678.438	29350.39
678.787	29403.94
679.135	29293.66
679.484	29265.87
679.832	29273.33
680.181	29189.03
680.529	29274.46
680.877	29178.64
681.225	29085.31
681.573	29262.93
681.922	29081.02
682.27	28976.61
682.618	28954.69
682.966	28880.79
683.314	28935.48
683.661	28900.45
684.009	28714.47
684.357	28606.68
684.705	28523.52
685.053	28621.37
685.4	28423.63
685.748	28508.6
686.095	28551.31
686.443	28328.94
686.79	28250.98
687.138	28327.59
687.485	28336.63
687.832	28159.68
688.18	28141.83
688.527	27888.96
688.874	27908.39
689.221	27948.62
689.568	27775.29
689.915	27790.43
690.262	27702.97
690.609	27683.09
690.956	27448.52
691.303	27511.34
691.65	27445.35
691.997	27337.56
692.344	27069.32
692.69	27083.33
693.037	27115.42
693.383	26884.91
693.73	26780.06
694.077	26693.06
694.423	26652.6
694.769	26532.38
695.116	26683.34
695.462	26472.27
695.808	26357.02
696.155	26293.52
696.501	26091.26
696.847	26311.14
697.193	25968.1
697.539	26059.63
697.885	25768.33
698.231	25631.16
698.577	25761.55
698.923	25613.08
699.269	25417.83
699.614	25338.97
699.96	25313.43
700.306	25383.94
700.651	25144.17
700.997	25077.05
701.342	25004.74
701.688	24916.83
702.033	24751.19
702.379	24824.86
702.724	24597.29
703.069	24746.67
703.415	24495.82
703.76	24448.14
704.105	24386.45
704.45	24343.29
704.795	24138.32
705.14	24107.13
705.485	23977.42
705.83	23864.65
706.175	23929.29
706.52	23861.04
706.865	23761.83
707.209	23735.17
707.554	23653.81
707.899	23636.19
708.243	23588.28
708.588	23532.69
708.932	23349.64
709.277	23468.06
709.621	23317.1
709.966	23126.37
710.31	23167.5
710.654	23045.92
710.998	23099.7
711.342	23042.76
711.687	23045.02
712.031	22977.9
712.375	22876.66
712.719	22847.05
713.063	22843.66
713.407	22981.06
713.75	22785.36
714.094	22808.41
714.438	22569.77
714.782	22676.89
715.125	22567.97
715.469	22775.64
715.812	22512.6
716.156	22494.97
716.499	22511.7
716.843	22505.82
717.186	22388.76
717.53	22568.64
717.873	22489.55
718.216	22456.1
718.559	22287.97
718.902	22133.4
719.246	22168.2
719.589	22195.09
719.932	22026.96
720.275	22142.44
720.617	22144.25
720.96	22068.32
721.303	22173.85
721.646	22146.96
721.989	22132.95
722.331	22073.74
722.674	21956.23
723.016	22147.64
723.359	21899.96
723.701	21926.63
724.044	21999.62
724.386	21906.06
724.729	21959.39
725.071	21999.17
725.413	21841.88
725.755	21827.42
726.097	21826.52
726.439	21764.6
726.782	21862.22
727.124	21905.84
727.465	21908.55
727.807	21783.13
728.149	21868.32
728.491	21752.62
728.833	21779.29
729.175	21799.85
729.516	21708.55
729.858	21706.07
730.199	21710.81
730.541	21573.19
730.882	21631.49
731.224	21700.64
731.565	21658.16
731.906	21720.08
732.248	21675.79
732.589	21585.17
732.93	21623.58
733.271	21615.9
733.612	21599.63
733.953	21677.37
734.294	21716.69
734.635	21652.28
734.976	21885.95
735.317	21789.46
735.658	21700.42
735.999	21597.82
736.339	21679.85
736.68	21798.27
737.021	21751.72
737.361	21727.54
737.702	21869.45
738.042	21774.77
738.383	21845.5
738.723	21840.3
739.063	21812.51
739.404	21913.75
739.744	21936.8
740.084	21822.22
740.424	21906.74
740.764	21847.08
741.104	21995.1
741.444	21937.25
741.784	21864.93
742.124	21992.16
742.464	22071.71
742.804	21998.72
743.143	22084.36
743.483	22136.79
743.823	22087.98
744.162	22108.32
744.502	22117.36
744.841	22210.01
745.181	22388.99
745.52	22237.81
745.86	22340.4
746.199	22370.01
746.538	22426.95
746.877	22558.7
747.216	22481.19
747.556	22478.93
747.895	22702.65
748.234	22705.82
748.573	22760.96
748.911	22660.62
749.25	22845.02
749.589	22683.22
749.928	22824.68
750.267	22984.45
750.605	23026.94
750.944	23135.41
751.283	23047.95
751.621	23296.76
751.96	23248.85
752.298	23221.28
752.636	23313.94
752.975	23256.31
753.313	23383.31
753.651	23463.54
753.989	23534.27
754.327	23567.04
754.666	23454.04
755.004	23791.66
755.342	23751.66
755.679	23767.26
756.017	23790.31
756.355	23924.99
756.693	23890.64
757.031	23968.38
757.368	23899.23
757.706	24006.12
758.044	23986.23
758.381	24214.02
758.719	24176.51
759.056	24151.88
759.394	24283.4
759.731	24220.35
760.068	24206.57
760.405	24328.37
760.743	24416.05
761.08	24388.26
761.417	24417.18
761.754	24363.17
762.091	24477.29
762.428	24356.39
762.765	24346.45
763.102	24329.05
763.438	24312.78
763.775	24287.24
764.112	24433.91
764.449	24397.3
764.785	24314.59
765.122	24359.11
765.458	24291.31
765.795	24268.71
766.131	24318.2
766.467	24369.95
766.804	24274.14
767.14	24323.17
767.476	24085.89
767.812	24129.05
768.148	24282.95
768.485	24133.35
768.821	24020.13
769.157	24092.67
769.492	24100.81
769.828	24037.31
770.164	23827.82
770.5	23736.07
770.836	23932.45
771.171	23596.87
771.507	23755.51
771.842	23516.87
772.178	23579.46
772.513	23544.21
772.849	23445.68
773.184	23481.84
773.519	23329.08
773.855	23228.51
774.19	23223.54
774.525	23176.09
774.86	23212.92
775.195	23124.11
775.53	23048.18
775.865	22979.93
776.2	22894.51
776.535	22701.97
776.87	22676.21
777.205	22672.6
777.539	22578.14
777.874	22617.46
778.209	22437.57
778.543	22414.98
778.878	22267.63
779.212	22299.5
779.547	22104.25
779.881	22032.39
780.215	21994.42
780.55	22043.91
780.884	21856.8
781.218	21779.29
781.552	21876.01
781.886	21720.08
782.22	21478.73
782.554	21565.28
782.888	21318.06
783.222	21403.7
783.556	21175.69
783.889	21032.87
784.223	21109.25
784.557	21027.44
784.89	21028.8
785.224	20891.85
785.557	20808.69
785.891	20801.46
786.224	20845.75
786.558	20746.09
786.891	20631.29
787.224	20474.01
787.557	20400.57
787.891	20394.46
788.224	20318.99
788.557	20349.04
788.89	20245.77
789.223	20252.09
789.556	20076.51
789.888	19999.9
790.221	19871.09
790.554	19829.73
790.887	19894.36
791.219	19772.79
791.552	19687.14
791.884	19629.06
792.217	19505.67
792.549	19441.95
792.882	19262.97
793.214	19225.91
793.546	19318.56
793.879	19121.73
794.211	19083.76
794.543	19295.74
794.875	19127.15
795.207	19035.63
795.539	18943.43
795.871	18947.5
796.203	18842.19
796.535	18638.35
796.867	18694.4
797.198	18602.19
797.53	18566.94
797.862	18454.4
798.193	18577.56
798.525	18303.22
798.856	18512.93
799.188	18232.94
799.519	18195.43
799.85	18048.31
800.182	18034.07
800.513	18058.48
800.844	17930.12
801.175	17936.68
801.506	17985.04
801.837	17826.4
802.168	17813.97
802.499	17841.31
802.83	17745.49
803.161	17646.97
803.491	17710.47
803.822	17734.42
804.153	17557.25
804.483	17489.46
804.814	17427.08
805.145	17469.57
805.475	17430.93
805.805	17285.39
806.136	17348.67
806.466	17250.59
806.796	17180.54
807.126	17084.04
807.457	17064.61
807.787	17149.13
808.117	17072.97
808.447	16950.03
808.777	16988
809.107	16770.15
809.436	16877.72
809.766	16808.34
810.096	16841.34
810.426	16678.86
810.755	16707.78
811.085	16629.59
811.414	16651.74
811.744	16509.14
812.073	16515.47
812.403	16363.16
812.732	16404.06
813.061	16449.26
813.39	16330.39
813.719	16327.9
814.049	16384.4
814.378	16291.07
814.707	16167.23
815.036	16276.15
815.365	16131.98
815.693	16025.31
816.022	16016.73
816.351	16020.12
816.68	15912.1
817.008	15947.58
817.337	15889.27
817.665	15779.22
817.994	15788.94
818.322	15888.37
818.651	15692.89
818.979	15741.93
819.307	15794.81
819.636	15778.09
819.964	15705.77
820.292	15705.77
820.62	15697.64
820.948	15752.78
821.276	15788.03
821.604	15732.67
821.932	15825.54
822.259	15721.14
822.587	15611.54
822.915	15691.08
823.243	15672.55
823.57	15504.2
823.898	15681.82
824.225	15613.8
824.553	15613.57
824.88	15632.33
825.207	15692.89
825.535	15616.51
825.862	15682.5
826.189	15615.15
826.516	15738.54
826.843	15727.92
827.17	15674.36
827.497	15678.43
827.824	15723.17
828.151	15689.28
828.478	15569.05
828.805	15797.52
829.131	15642.27
829.458	15713.23
829.785	15633.68
830.111	15724.76
830.438	15789.84
830.764	15714.36
831.09	15756.85
831.417	15630.97
831.743	15747.58
832.069	15752.78
832.395	15700.12
832.722	15669.16
833.048	15587.58
833.374	15651.76
833.7	15661.71
834.026	15561.14
834.351	15585.78
834.677	15670.75
835.003	15576.06
835.329	15683.4
835.654	15614.25
835.98	15517.3
836.306	15507.13
836.631	15475.05
836.956	15641.14
837.282	15541.26
837.607	15440.92
837.932	15479.79
838.258	15474.59
838.583	15441.83
838.908	15374.48
839.233	15396.4
839.558	15353.92
839.883	15286.35
840.208	15164.32
840.533	15253.58
840.858	15258.78
841.182	15225.79
841.507	15178.1
841.832	15157.31
842.156	15101.27
842.481	15069.63
842.805	14994.15
843.13	14945.79
843.454	14928.17
843.778	14840.03
844.103	14828.28
844.427	14860.15
844.751	14874.16
845.075	14805.23
845.399	14785.12
845.723	14717.55
846.047	14774.05
846.371	14673.26
846.695	14598.91
847.019	14505.13
847.343	14438.91
847.666	14433.26
847.99	14319.37
848.313	14237.56
848.637	14247.05
848.96	14250.9
849.284	14259.94
849.607	14121.86
849.931	14056.78
850.254	13958.7
850.577	13897.69
850.9	13795.09
851.223	13758.03
851.546	13829.66
851.869	13689.56
852.192	13716
852.515	13645.04
852.838	13518.26
853.161	13521.2
853.483	13479.84
853.806	13407.53
854.129	13469.22
854.451	13355.55
854.774	13181.09
855.096	13233.75
855.419	13305.38
855.741	13131.15
856.063	13152.62
856.385	13006.18
856.708	13031.72
857.03	12963.7
857.352	12921.21
857.674	12850.03
857.996	12844.15
858.318	12789.92
858.64	12818.17
858.961	12729.13
859.283	12819.75
859.605	12728.68
859.926	12672.86
860.248	12624.05
860.57	12637.83
860.891	12541.79
861.212	12501.11
861.534	12534.11
861.855	12473.09
862.176	12480.32
862.498	12515.12
862.819	12382.47
863.14	12418.18
863.461	12375.01
863.782	12266.99
864.103	12329.37
864.424	12246.2
864.745	12328.46
865.065	12167.79
865.386	12140.22
865.707	12206.66
866.027	12198.52
866.348	12098.41
866.668	12103.38
866.989	12094.12
867.309	11998.98
867.63	12027.9
867.95	12032.42
868.27	11985.87
868.59	12033.1
868.91	11951.07
869.23	11934.8
869.55	11893.22
869.87	11851.86
870.19	11836.95
870.51	11799.66
870.83	11831.53
871.15	11790.4
871.469	11721.02
871.789	11764.86
872.109	11792.2
872.428	11742.49
872.748	11681.47
873.067	11748.14
873.386	11743.84
873.706	11697.74
874.025	11628.37
874.344	11646.45
874.663	11604.86
874.982	11579.78
875.301	11601.25
875.62	11571.19
875.939	11568.26
876.258	11539.33
876.577	11456.85
876.896	11511.08
877.214	11446
877.533	11507.24
877.852	11380.69
878.17	11408.26
878.489	11420.91
878.807	11390.41
879.125	11392.44
879.444	11309.05
879.762	11328.04
880.08	11393.57
880.398	11302.05
880.716	11318.32
881.034	11219.34
881.352	11265.66
881.67	11172.11
881.988	11235.38
882.306	11158.32
882.624	11175.72
882.941	11094.37
883.259	11151.54
883.577	11082.39
883.894	11088.95
884.212	11058.21
884.529	10931.66
884.846	10970.53
885.164	10890.98
885.481	10899.35
885.798	10922.62
886.115	10771.89
886.432	10869.29
886.75	10883.08
887.067	10790.65
887.383	10810.08
887.7	10697.09
888.017	10673.59
888.334	10655.51
888.651	10664.1
888.967	10615.74
889.284	10531.67
889.6	10569.86
889.917	10544.55
890.233	10558.11
890.55	10521.28
890.866	10487.15
891.182	10435.86
891.498	10442.64
891.815	10366.93
892.131	10383.65
892.447	10404.67
892.763	10295.07
893.079	10298.01
893.395	10265.01
893.71	10236.54
894.026	10216.65
894.342	10140.5
894.657	10097.33
894.973	10064.57
895.289	10101.18
895.604	9953.83
895.92	9927.62
896.235	9990.9
896.55	9922.42
896.865	9860.5
897.181	9927.39
897.496	9884.46
897.811	9808.3
898.126	9700.06
898.441	9672.71
898.756	9664.12
899.071	9576.22
899.386	9707.51
899.7	9580.96
900.015	9524.69
900.33	9488.31
900.644	9503
900.959	9498.71
901.273	9383.68
901.588	9433.17
901.902	9399.5
902.216	9419.16
902.531	9329.9
902.845	9328.31
903.159	9256.45
903.473	9247.64
903.787	9190.69
904.101	9059.17
904.415	9153.4
904.729	9132.39
905.042	8990.7
905.356	8985.05
905.67	9021.43
905.984	8956.8
906.297	8937.36
906.611	8891.72
906.924	8887.65
907.237	8838.84
907.551	8826.41
907.864	8782.11
908.177	8798.38
908.491	8699.86
908.804	8705.73
909.117	8624.38
909.43	8584.6
909.743	8550.26
910.056	8582.12
910.368	8455.12
910.681	8475.68
910.994	8417.83
911.307	8439.52
911.619	8378.73
911.932	8363.59
912.244	8284.05
912.557	8334.67
912.869	8248.57
913.181	8215.8
913.494	8184.84
913.806	8082.7
914.118	8127.44
914.43	8060.78
914.742	8002.02
915.054	7998.41
915.366	7961.12
915.678	7865.75
915.99	7912.31
916.302	7772.65
916.613	7822.36
916.925	7789.6
917.236	7809.94
917.548	7681.35
917.859	7717.28
918.171	7650.39
918.482	7578.08
918.794	7618.98
919.105	7515.93
919.416	7487.23
919.727	7497.18
920.038	7494.24
920.349	7395.03
920.66	7378.53
920.971	7404.52
921.282	7319.55
921.593	7279.78
921.903	7279.33
922.214	7291.98
922.525	7211.08
922.835	7261.7
923.146	7148.48
923.456	7163.85
923.767	7139.22
924.077	7070.07
924.387	7097.41
924.697	7012.44
925.008	7013.35
925.318	6991.88
925.628	6960.24
925.938	6924.99
926.248	6844.31
926.558	6864.42
926.867	6851.54
927.177	6792.34
927.487	6788.95
927.796	6691.77
928.106	6763.41
928.416	6663.75
928.725	6668.5
929.034	6665.79
929.344	6695.16
929.653	6639.12
929.962	6518.22
930.271	6528.16
930.581	6512.12
930.89	6513.7
931.199	6441.61
931.508	6412.91
931.817	6408.39
932.125	6400.26
932.434	6383.98
932.743	6271.45
933.051	6239.81
933.36	6248.62
933.669	6212.69
933.977	6202.97
934.286	6216.98
934.594	6181.5
934.902	6134.27
935.21	6087.72
935.519	6110.55
935.827	6054.73
936.135	6007.5
936.443	5981.06
936.751	5982.19
937.059	5967.27
937.367	5896.99
937.674	5892.47
937.982	5860.61
938.29	5885.92
938.597	5801.63
938.905	5767.05
939.213	5695.42
939.52	5730.22
939.827	5746.49
940.135	5693.83
940.442	5705.36
940.749	5617.9
941.056	5669.2
941.363	5583.33
941.67	5621.29
941.977	5570.22
942.284	5501.52
942.591	5600.5
942.898	5513.05
943.205	5484.57
943.511	5428.53
943.818	5451.35
944.125	5402.54
944.431	5373.84
944.738	5410.22
945.044	5317.8
945.35	5342.43
945.657	5235.77
945.963	5248.65
946.269	5237.12
946.575	5186.73
946.881	5186.73
947.187	5165.71
947.493	5151.47
947.799	5112.15
948.105	5114.19
948.41	5076.9
948.716	5046.39
949.022	5041.42
949.327	5027.86
949.633	4990.57
949.938	4986.96
950.244	4976.11
950.549	4989.67
950.854	4883.46
951.16	4897.24
951.465	4881.43
951.77	4840.07
952.075	4821.54
952.38	4844.82
952.685	4792.84
952.99	4738.15
953.294	4769.56
953.599	4732.73
953.904	4668.55
954.209	4688.89
954.513	4694.76
954.818	4616.57
955.122	4626.97
955.426	4631.71
955.731	4588.55
956.035	4629.45
956.339	4571.6
956.643	4553.52
956.948	4489.35
957.252	4502.68
957.556	4490.02
957.86	4437.37
958.163	4440.98
958.467	4443.47
958.771	4480.31
959.075	4395.56
959.378	4350.14
959.682	4375.45
959.985	4357.82
960.289	4279.41
960.592	4306.98
960.896	4273.31
961.199	4279.86
961.502	4257.26
961.805	4252.29
962.108	4157.6
962.411	4161.44
962.714	4149.92
963.017	4114.89
963.32	4158.05
963.623	4116.25
963.926	4092.52
964.228	4079.86
964.531	4070.15
964.833	4084.38
965.136	3990.6
965.438	3946.31
965.741	4011.62
966.043	4031.05
966.345	3973.88
966.648	3946.99
966.95	3952.41
967.252	3924.84
967.554	3905.63
967.856	3886.2
968.158	3868.57
968.46	3867.44
968.761	3794.22
969.063	3825.18
969.365	3783.38
969.666	3777.95
969.968	3774.79
970.269	3740.89
970.571	3730.95
970.872	3712.64
971.174	3680.1
971.475	3673.32
971.776	3624.28
972.077	3643.04
972.378	3629.93
972.679	3652.31
972.98	3617.28
973.281	3605.07
973.582	3590.16
973.883	3568.24
974.183	3528.92
974.484	3570.05
974.785	3480.11
975.085	3506.32
975.386	3501.8
975.686	3492.08
975.986	3473.55
976.287	3481.24
976.587	3425.87
976.887	3420.67
977.187	3434.23
977.487	3415.48
977.787	3383.39
978.087	3329.15
978.387	3356.27
978.687	3343.84
978.987	3313.56
979.286	3265.65
979.586	3305.87
979.885	3262.48
980.185	3236.5
980.484	3171.87
980.784	3202.6
981.083	3210.28
981.382	3158.98
981.682	3181.13
981.981	3182.49
982.28	3149.72
982.579	3115.82
982.878	3098.2
983.177	3117.63
983.475	3096.16
983.774	3093
984.073	3033.34
984.372	3028.59
984.67	3030.4
984.969	3045.99
985.267	2976.16
985.566	2998.76
985.864	3016.39
986.162	2995.37
986.461	2911.76
986.759	2976.62
987.057	2937.75
987.355	2917.41
987.653	2899.1
987.951	2902.49
988.249	2836.06
988.547	2845.55
988.844	2878.99
989.142	2853.68
989.44	2814.36
989.737	2848.48
990.035	2803.97
990.332	2788.15
990.63	2774.14
990.927	2813.01
991.224	2773.23
991.521	2752.67
991.819	2687.58
992.116	2687.58
992.413	2706.79
992.71	2680.58
993.006	2685.1
993.303	2634.25
993.6	2660.69
993.897	2683.74
994.193	2656.63
994.49	2625.21
994.787	2628.38
995.083	2589.28
995.379	2565.55
995.676	2549.74
995.972	2572.79
996.268	2539.57
996.565	2503.18
996.861	2510.87
997.157	2503.86
997.453	2484.2
997.749	2472.9
998.044	2449.62
998.34	2430.64
998.636	2417.54
998.932	2451.88
999.227	2401.72
999.523	2417.08
999.818	2373.69
1000.114	2394.26
1000.409	2367.14
1000.704	2366.46
1001	2391.77
1001.295	2315.84
1001.59	2321.49
1001.885	2343.19
1002.18	2319.23
1002.475	2298.22
1002.77	2295.05
1003.065	2288.95
1003.359	2259.12
1003.654	2237.43
1003.949	2237.88
1004.243	2208.5
1004.538	2182.74
1004.832	2174.38
1005.127	2191.55
1005.421	2183.19
1005.715	2143.87
1006.009	2154.27
1006.304	2128.05
1006.598	2124.21
1006.892	2131.89
1007.186	2091.44
1007.48	2094.83
1007.773	2088.96
1008.067	2064.55
1008.361	2067.71
1008.655	2067.26
1008.948	2036.08
1009.242	2051.44
1009.535	2031.78
1009.829	2027.49
1010.122	1983.65
1010.415	1979.35
1010.708	1954.95
1011.001	1972.12
1011.295	1922.63
1011.588	1939.81
1011.881	1909.75
1012.173	1905.01
1012.466	1905.01
1012.759	1865.46
1013.052	1890.54
1013.344	1856.65
1013.637	1850.54
1013.93	1836.99
1014.222	1860.94
1014.514	1845.8
1014.807	1822.52
1015.099	1812.13
1015.391	1781.39
1015.683	1770.55
1015.976	1768.06
1016.268	1772.35
1016.56	1732.13
1016.851	1719.02
1017.143	1732.81
1017.435	1708.4
1017.727	1724.22
1018.018	1720.6
1018.31	1681.51
1018.602	1685.58
1018.893	1664.33
1019.185	1657.56
1019.476	1661.62
1019.767	1649.42
1020.058	1621.85
1020.35	1617.1
1020.641	1613.04
1020.932	1574.17
1021.223	1559.03
1021.514	1587.5
1021.804	1536.2
1022.095	1551.34
1022.386	1538.91
1022.677	1502.08
1022.967	1496.66
1023.258	1481.97
1023.548	1477.9
1023.839	1508.18
1024.129	1481.06
1024.419	1483.55
1024.709	1465.24
1025	1441.29
1025.29	1429.99
1025.58	1448.75
1025.87	1386.38
1026.16	1416.21
1026.449	1401.74
1026.739	1434.06
1027.029	1403.78
1027.319	1375.3
1027.608	1362.2
1027.898	1357.68
1028.187	1360.61
1028.477	1353.83
1028.766	1334.17
1029.055	1327.85
1029.344	1348.86
1029.634	1321.74
1029.923	1294.4
1030.212	1302.54
1030.501	1302.76
1030.79	1294.85
1031.078	1265.7
1031.367	1267.96
1031.656	1232.48
1031.945	1251.01
1032.233	1203.56
1032.522	1225.7
1032.81	1231.35
1033.099	1215.31
1033.387	1205.36
1033.675	1187.74
1033.963	1186.61
1034.251	1181.18
1034.54	1167.4
1034.828	1158.36
1035.116	1141.41
1035.403	1138.92
1035.691	1157.23
1035.979	1125.82
1036.267	1126.95
1036.554	1130.79
1036.842	1104.35
1037.129	1117
1037.417	1107.29
1037.704	1082.2
1037.992	1074.97
1038.279	1066.16
1038.566	1054.41
1038.853	1054.41
1039.14	1054.41
