Data from 5405_FLMS001491_010.txt Node
Date: Thu Apr 19 16:38:32 BST 2018
User: hsy
Spectrometer: FLMS00149
Trigger mode: 0
Integration Time (sec): 1.000000E-2
Scans to average: 10
Electric dark correction enabled: true
Nonlinearity correction enabled: false
Boxcar width: 0
XAxis mode: Wavelengths
Number of Pixels in Spectrum: 2048
>>>>>Begin Spectral Data<<<<<
341.393	-5.96
341.776	-5.96
342.16	-5.96
342.543	-29.46
342.927	-50.48
343.31	-73.53
343.693	-55
344.077	-65.85
344.46	-64.72
344.843	-56.35
345.226	-49.35
345.61	-25.85
345.993	-37.15
346.376	-15.9
346.759	27.71
347.142	28.62
347.525	41.72
347.908	54.15
348.291	65
348.674	100.25
349.057	126.24
349.44	117.43
349.823	144.09
350.206	184.32
350.588	229.74
350.971	246.01
351.354	255.95
351.737	253.92
352.119	285.56
352.502	313.35
352.884	297.31
353.267	317.42
353.65	306.8
354.032	320.13
354.414	317.65
354.797	339.57
355.179	352
355.562	338.44
355.944	356.52
356.326	344.31
356.709	372.33
357.091	365.56
357.473	373.24
357.855	374.82
358.238	362.17
358.62	382.28
359.002	383.18
359.384	383.63
359.766	363.75
360.148	368.27
360.53	366.01
360.912	382.05
361.294	364.88
361.676	372.79
362.057	368.72
362.439	377.31
362.821	375.5
363.203	346.57
363.584	355.16
363.966	381.6
364.348	384.09
364.729	354.03
365.111	358.1
365.493	368.95
365.874	366.69
366.256	350.19
366.637	369.17
367.019	334.6
367.4	371.43
367.781	359.23
368.163	356.74
368.544	373.01
368.925	352.22
369.306	361.49
369.688	366.01
370.069	349.06
370.45	376.4
370.831	370.08
371.212	373.92
371.593	374.37
371.974	367.59
372.355	361.49
372.736	379.79
373.117	377.31
373.498	357.65
373.879	366.01
374.26	374.37
374.641	357.42
375.021	363.75
375.402	365.78
375.783	385.22
376.163	387.02
376.544	406.46
376.925	399.45
377.305	406.23
377.686	385.44
378.066	377.76
378.447	377.53
378.827	415.5
379.208	396.06
379.588	414.14
379.968	403.52
380.349	406.68
380.729	423.86
381.109	400.13
381.489	443.75
381.87	421.6
382.25	434.25
382.63	417.08
383.01	437.42
383.39	437.64
383.77	420.92
384.15	450.52
384.53	431.54
384.91	420.02
385.29	455.95
385.67	440.58
386.049	459.11
386.429	463.86
386.809	452.78
387.189	465.44
387.568	463.18
387.948	481.03
388.328	474.93
388.707	451.88
389.087	464.99
389.466	483.52
389.846	480.13
390.225	498.66
390.605	493.01
390.984	500.92
391.363	490.07
391.743	501.15
392.122	502.05
392.501	504.53
392.881	528.26
393.26	517.64
393.639	516.29
394.018	505.44
394.397	507.92
394.776	526
395.155	528.94
395.534	531.2
395.913	538.66
396.292	548.6
396.671	553.8
397.05	563.29
397.429	562.61
397.808	577.75
398.186	557.19
398.565	569.39
398.944	564.65
399.323	581.82
399.701	569.62
400.08	593.12
400.458	557.19
400.837	607.13
401.215	599.9
401.594	601.93
401.972	627.92
402.351	596.96
402.729	618.2
403.107	634.02
403.486	653.68
403.864	637.64
404.242	655.49
404.62	656.62
404.999	664.53
405.377	661.59
405.755	658.2
406.133	653.68
406.511	666.56
406.889	697.07
407.267	682.61
407.645	697.75
408.023	695.94
408.401	709.28
408.779	713.57
409.156	712.89
409.534	719.22
409.912	763.96
410.29	739.1
410.667	770.52
411.045	756.28
411.422	778.65
411.8	789.95
412.178	807.8
412.555	819.78
412.933	822.49
413.31	813.91
413.687	838.76
414.065	835.6
414.442	854.81
414.819	890.06
415.197	864.75
415.574	874.69
415.951	891.87
416.328	917.86
416.705	897.29
417.082	923.51
417.46	932.77
417.837	914.92
418.214	928.25
418.591	933.45
418.967	944.07
419.344	935.71
419.721	964.86
420.098	951.98
420.475	991.75
420.852	1012.54
421.228	1020.23
421.605	996.5
421.982	1010.74
422.358	1034.69
422.735	1018.65
423.111	1058.87
423.488	1057.97
423.864	1067.68
424.241	1079.89
424.617	1105.87
424.994	1083.95
425.37	1096.61
425.746	1140.45
426.123	1132.77
426.499	1130.28
426.875	1161.01
427.251	1162.37
427.627	1191.3
428.003	1211.18
428.379	1225.65
428.756	1234.46
429.132	1260
429.507	1262.03
429.883	1268.58
430.259	1293.21
430.635	1317.62
431.011	1316.26
431.387	1351.74
431.763	1345.42
432.138	1374.79
432.514	1411.86
432.89	1401.23
433.265	1438.3
433.641	1442.36
434.016	1474.68
434.392	1490.72
434.767	1528.46
435.143	1489.59
435.518	1509.03
435.894	1548.58
436.269	1546.32
436.644	1583.38
437.02	1602.58
437.395	1593.77
437.77	1641
438.145	1648.23
438.52	1667.22
438.895	1688.23
439.271	1688.46
439.646	1694.79
440.021	1692.98
440.395	1761.22
440.77	1706.76
441.145	1726.88
441.52	1793.77
441.895	1764.39
442.27	1803.26
442.645	1805.74
443.019	1816.36
443.394	1828.34
443.769	1800.55
444.143	1848.91
444.518	1849.81
444.892	1862.01
445.267	1888.23
445.641	1867.21
446.016	1878.28
446.39	1931.84
446.764	1904.05
447.139	1886.87
447.513	1961.22
447.887	1980.65
448.262	1964.16
448.636	1996.47
449.01	2016.59
449.384	2024.49
449.758	2071.5
450.132	2069.92
450.506	2063.36
450.88	2069.92
451.254	2078.73
451.628	2131.84
452.002	2120.99
452.376	2170.48
452.75	2186.07
453.123	2183.13
453.497	2239.63
453.871	2238.05
454.244	2298.39
454.618	2276.47
454.992	2326.18
455.365	2370.25
455.739	2371.15
456.112	2426.52
456.486	2441.21
456.859	2442.56
457.232	2502.45
457.606	2546.74
457.979	2553.29
458.352	2628.32
458.725	2624.25
459.099	2652.95
459.472	2683.23
459.845	2707.19
460.218	2682.56
460.591	2757.13
460.964	2790.58
461.337	2862.21
461.71	2884.13
462.083	2895.43
462.456	2873.29
462.829	2919.16
463.201	2990.8
463.574	2999.84
463.947	3035.32
464.32	3082.09
464.692	3133.17
465.065	3122.77
465.438	3189.66
465.81	3207.06
466.183	3214.07
466.555	3299.26
466.928	3343.1
467.3	3315.53
467.672	3377.91
468.045	3449.32
468.417	3431.24
468.789	3489.99
469.161	3560.5
469.534	3541.52
469.906	3590.56
470.278	3661.06
470.65	3659.03
471.022	3720.95
471.394	3835.07
471.766	3843.2
472.138	3868.97
472.51	3984.67
472.882	4047.94
473.253	4092.01
473.625	4088.17
473.997	4151.67
474.369	4176.3
474.74	4277.77
475.112	4304.66
475.484	4374.04
475.855	4433.47
476.227	4470.53
476.598	4592.56
476.97	4653.58
477.341	4772.45
477.713	4789.17
478.084	4836.4
478.455	4974.25
478.827	5007.92
479.198	5191.64
479.569	5146.22
479.94	5252.66
480.311	5357.51
480.682	5435.48
481.053	5559.77
481.424	5639.09
481.795	5685.87
482.166	5780.55
482.537	5908.01
482.908	5970.83
483.279	6038.17
483.65	6141.67
484.021	6258.73
484.391	6365.62
484.762	6388.9
485.133	6465.96
485.503	6527.43
485.874	6701.89
486.244	6755.9
486.615	6896.01
486.985	6965.38
487.356	7045.83
487.726	7183.91
488.097	7356.11
488.467	7358.14
488.837	7521.75
489.207	7550.45
489.578	7737.34
489.948	7847.62
490.318	7898.01
490.688	7957.45
491.058	8087.84
491.428	8216.42
491.798	8265.69
492.168	8460.03
492.538	8480.6
492.908	8616.86
493.278	8728.73
493.648	8739.35
494.017	8853.92
494.387	8976.4
494.757	8996.29
495.126	9122.61
495.496	9095.72
495.866	9210.29
496.235	9333.91
496.605	9426.33
496.974	9483.96
497.344	9608.93
497.713	9640.11
498.082	9718.3
498.452	9822.26
498.821	9862.03
499.19	9856.38
499.559	9995.13
499.928	10035.13
500.298	10109.48
500.667	10228.8
501.036	10221.34
501.405	10260.44
501.774	10321
502.143	10399.64
502.512	10533.2
502.88	10591.28
503.249	10562.8
503.618	10689.58
503.987	10738.62
504.356	10824.04
504.724	10922.11
505.093	10909.46
505.462	10961.43
505.83	11028.55
506.199	11163.01
506.567	11254.08
506.936	11327.3
507.304	11385.83
507.672	11414.3
508.041	11496.34
508.409	11623.34
508.777	11648.2
509.145	11757.12
509.514	11800.06
509.882	11907.62
510.25	11884.8
510.618	11982.88
510.986	11973.16
511.354	12101.97
511.722	12253.83
512.09	12364.11
512.458	12395.3
512.826	12448.85
513.193	12524.56
513.561	12556.2
513.929	12667.6
514.297	12723.42
514.664	12832.12
515.032	12929.07
515.4	13037.09
515.767	13123.64
516.135	13169.96
516.502	13118.67
516.869	13362.73
517.237	13423.07
517.604	13400.92
517.972	13646.34
518.339	13729.27
518.706	13733.34
519.073	13821.25
519.44	13888.82
519.808	14030.28
520.175	14152.99
520.542	14287.68
520.909	14336.71
521.276	14452.19
521.643	14581.45
522.009	14642.47
522.376	14866.19
522.743	14836.59
523.11	15060.31
523.477	15175.79
523.843	15201.1
524.21	15401.32
524.577	15482.9
524.943	15687.86
525.31	15737.13
525.676	15944.81
526.043	15950.23
526.409	16062.77
526.776	16219.6
527.142	16375.76
527.508	16498.24
527.874	16655.97
528.241	16661.4
528.607	16700.49
528.973	16961.05
529.339	16992.69
529.705	17139.58
530.071	17281.27
530.437	17417.99
530.803	17608.04
531.169	17647.36
531.535	17619.11
531.901	17749.51
532.267	17882.83
532.632	17934.81
532.998	18028.14
533.364	18245.09
533.73	18151.53
534.095	18348.81
534.461	18369.15
534.826	18458.41
535.192	18554
535.557	18669.25
535.923	18673.32
536.288	18826.31
536.653	18762.36
537.019	18826.76
537.384	18830.38
537.749	18967.55
538.114	18948.12
538.479	19009.36
538.845	19095.01
539.21	19143.14
539.575	19175.68
539.94	19327.54
540.305	19453.19
540.67	19354.43
541.034	19478.27
541.399	19489.12
541.764	19545.16
542.129	19640.53
542.494	19672.17
542.858	19750.13
543.223	19636.24
543.587	19783.12
543.952	19824.93
544.316	19922.1
544.681	19795.78
545.045	20092.95
545.41	20062.89
545.774	19914.65
546.138	20006.62
546.503	20112.15
546.867	20119.39
547.231	20312.15
547.595	20329.55
547.959	20395.31
548.324	20342.21
548.688	20361.87
549.052	20388.53
549.416	20367.74
549.779	20445.25
550.143	20509.88
550.507	20581.29
550.871	20738.35
551.235	20647.96
551.599	20820.16
551.962	20932.7
552.326	20946.71
552.689	20988.06
553.053	20868.29
553.417	21019.93
553.78	21238
554.143	21177.44
554.507	21338.34
554.87	21412.91
555.234	21435.96
555.597	21297.66
555.96	21515.28
556.323	21621.49
556.686	21556.41
557.05	21829.17
557.413	21827.14
557.776	21938.77
558.139	22115.04
558.502	22104.19
558.865	22137.19
559.228	22358.65
559.59	22429.61
559.953	22381.02
560.316	22692.88
560.679	22766.32
561.041	22896.94
561.404	23021
561.767	23136.26
562.129	23067.11
562.492	23402.69
562.854	23308.45
563.217	23366.31
563.579	23631.16
563.941	23835.22
564.304	23956.35
564.666	24217.13
565.028	24168.77
565.39	24320.41
565.753	24535.99
566.115	24607.18
566.477	24761.07
566.839	24938.69
567.201	25138.92
567.563	25121.29
567.925	25454.16
568.287	25511.56
568.648	25773.47
569.01	25920.14
569.372	26137.31
569.734	26221.6
570.095	26453.46
570.457	26718.76
570.819	26819.32
571.18	26980.22
571.542	27202.82
571.903	27255.7
572.265	27357.39
572.626	27722.12
572.987	27896.81
573.349	28113.53
573.71	28104.04
574.071	28333.86
574.432	28616.34
574.794	28791.7
575.155	28914.41
575.516	28923.67
575.877	29216.32
576.238	29252.48
576.599	29431.68
576.96	29553.26
577.32	29590.1
577.681	29857.21
578.042	30101.95
578.403	30017.21
578.763	30088.16
579.124	30289.74
579.485	30396.63
579.845	30437.98
580.206	30591.2
580.566	30698.09
580.927	30621.93
581.287	30785.32
581.648	30915.49
582.008	30993.22
582.368	30909.84
582.728	31065.77
583.089	31067.57
583.449	31085.43
583.809	31169.72
584.169	31313.67
584.529	31255.36
584.889	31526.32
585.249	31283.84
585.609	31170.17
585.969	31303.27
586.329	31390.5
586.688	31455.59
587.048	31450.39
587.408	31390.28
587.768	31428.47
588.127	31299.66
588.487	31510.73
588.846	31716.82
589.206	31531.74
589.565	31482.25
589.925	31772.64
590.284	31596.82
590.643	31613.55
591.003	31650.61
591.362	31935.35
591.721	31684.73
592.08	31735.13
592.44	31889.47
592.799	31837.95
593.158	31754.33
593.517	31694
593.876	31878.4
594.235	31802.69
594.593	31863.94
594.952	31890.15
595.311	31819.19
595.67	31947.78
596.029	32128.79
596.387	32172.18
596.746	32188.22
597.104	31956.14
597.463	32059.86
597.822	32271.16
598.18	32083.82
598.538	32090.82
598.897	32297.15
599.255	32216.24
599.613	32448.33
599.972	32360.87
600.33	32349.8
600.688	32322
601.046	32519.74
601.404	32652.16
601.762	32614.65
602.12	32664.14
602.478	32641.54
602.836	32796.57
603.194	32505.28
603.552	32690.58
603.91	32727.87
604.268	32849.9
604.625	32641.99
604.983	32982.78
605.341	32837.47
605.698	32873.18
606.056	33030.46
606.413	32843.8
606.771	33204.92
607.128	33103
607.485	33021.19
607.843	33089.44
608.2	33239.27
608.557	33335.99
608.914	33308.87
609.272	33456.44
609.629	33566.04
609.986	33549.32
610.343	33548.41
610.7	34088.51
611.057	33805.58
611.414	33733.27
611.771	33878.57
612.127	34012.58
612.484	34027.95
612.841	34056.65
613.198	33975.07
613.554	33885.58
613.911	34288.73
614.267	34119.02
614.624	34164.21
614.98	34297.77
615.337	34366.02
615.693	34321.27
616.05	34450.99
616.406	34659.79
616.762	34455.05
617.118	34493.47
617.475	34506.8
617.831	34628.84
618.187	34716.29
618.543	34715.16
618.899	35054.13
619.255	34825.89
619.611	34832.45
619.967	35014.81
620.323	35057.3
620.678	34844.87
621.034	34967.81
621.39	34942.95
621.746	35003.74
622.101	35420.45
622.457	35001.48
622.812	35109.73
623.168	35189.5
623.523	35175.04
623.879	35242.15
624.234	35096.62
624.589	35274.24
624.945	35312.21
625.3	35407.8
625.655	35241.47
626.01	35347.01
626.365	35318.99
626.72	35249.38
627.075	35346.33
627.43	35182.72
627.785	35329.83
628.14	35258.88
628.495	35298.87
628.85	35339.78
629.205	35226.79
629.559	35362.6
629.914	35275.37
630.269	35252.77
630.623	34977.53
630.978	35031.08
631.332	35230.85
631.687	35210.06
632.041	35063.85
632.396	35161.48
632.75	35110.63
633.104	35009.16
633.459	34759.68
633.813	34930.3
634.167	34803.97
634.521	34740.7
634.875	34877.19
635.229	34633.13
635.583	34597.65
635.937	34353.81
636.291	34538.89
636.645	34483.75
636.999	34470.2
637.352	34489.63
637.706	34225.91
638.06	34483.08
638.413	34397.88
638.767	34345.68
639.121	34403.98
639.474	34074.05
639.828	34220.48
640.181	34153.14
640.534	34096.42
640.888	33952.69
641.241	33847.39
641.594	33925.12
641.947	34122.63
642.301	33865.92
642.654	33905.46
643.007	34049.42
643.36	33901.4
643.713	33763.77
644.066	33921.74
644.419	33711.8
644.771	33314.75
645.124	33070.01
645.477	32985.71
645.83	32933.74
646.182	33052.38
646.535	32906.39
646.888	33035.66
647.24	32788.21
647.593	33176.67
647.945	32859.39
648.298	32817.13
648.65	32533.75
649.002	32412.62
649.355	32457.14
649.707	32324.72
650.059	32235.68
650.411	32739.39
650.763	32824.59
651.115	33465.25
651.467	33239.27
651.819	33254.18
652.171	33155.2
652.523	33103.68
652.875	33108.65
653.227	33005.15
653.578	33319.49
653.93	33179.83
654.282	32985.26
654.633	32945.94
654.985	33087.41
655.337	33083.57
655.688	33112.04
656.039	33134.19
656.391	32766.06
656.742	32864.59
657.094	32849.22
657.445	33001.99
657.796	32921.99
658.147	32863.23
658.498	32988.65
658.849	33106.39
659.2	33000.4
659.551	32736.23
659.902	32995.88
660.253	32881.08
660.604	32945.26
660.955	32813.74
661.306	33017.8
661.656	32867.75
662.007	32973.29
662.358	33035.43
662.708	32891.25
663.059	32985.26
663.409	32761.54
663.76	32875.44
664.11	32933.74
664.461	33046.73
664.811	32993.4
665.161	32938.48
665.511	32871.14
665.862	32975.09
666.212	32932.38
666.562	33038.82
666.912	32919.73
667.262	32862.33
667.612	32836.11
667.962	33020.29
668.312	32880.86
668.662	33064.13
669.011	32950.01
669.361	32910.69
669.711	32882.89
670.06	32798.83
670.41	32831.37
670.76	32663.46
671.109	32880.63
671.459	32692.61
671.808	32718.38
672.157	32861.65
672.507	32736.46
672.856	32657.59
673.205	32658.49
673.554	32740.3
673.904	32661.2
674.253	32809.22
674.602	32553.18
674.951	32196.36
675.3	31966.08
675.649	32615.55
675.998	32584.6
676.346	32674.76
676.695	32555.44
677.044	32424.6
677.393	32447.2
677.741	32553.18
678.09	32362.91
678.438	32465.5
678.787	32326.97
679.135	32404.71
679.484	32173.98
679.832	32363.58
680.181	32229.35
680.529	32193.87
680.877	31995.46
681.225	32084.95
681.573	32202.23
681.922	31985.97
682.27	31917.49
682.618	31912.75
682.966	31812.41
683.314	31963.14
683.661	31880.43
684.009	31698.74
684.357	31692.87
684.705	31566.77
685.053	31515.47
685.4	31431.63
685.748	31356.83
686.095	31379.43
686.443	31088.36
686.79	31209.94
687.138	31109.83
687.485	31146.44
687.832	30994.58
688.18	30997.29
688.527	30873.68
688.874	30814.02
689.221	30733.57
689.568	30564.31
689.915	30514.37
690.262	30589.39
690.609	30460.36
690.956	30385.33
691.303	30291.55
691.65	30137.43
691.997	30090.2
692.344	30022.85
692.69	29846.36
693.037	29821.73
693.383	29513.26
693.73	29673.49
694.077	29574.73
694.423	29518.46
694.769	29354.17
695.116	29438.24
695.462	29276.89
695.808	29071.02
696.155	29159.37
696.501	28968.65
696.847	28933.39
697.193	28701.53
697.539	28744.24
697.885	28479.39
698.231	28480.75
698.577	28412.73
698.923	28339.74
699.269	28042.12
699.614	28032.4
699.96	28032.17
700.306	27991.72
700.651	27844.38
700.997	27781.78
701.342	27689.13
701.688	27635.8
702.033	27460.44
702.379	27506.99
702.724	27272.64
703.069	27443.71
703.415	27055.93
703.76	26933.67
704.105	27036.72
704.45	26923.95
704.795	26830.17
705.14	26708.82
705.485	26512.66
705.83	26430.86
706.175	26537.97
706.52	26504.3
706.865	26392.89
707.209	26290.3
707.554	26283.97
707.899	26211.66
708.243	26118.32
708.588	26061.38
708.932	25860.93
709.277	25963.98
709.621	25830.42
709.966	25584.55
710.31	25729.41
710.654	25498.23
710.998	25568.28
711.342	25657.77
711.687	25408.96
712.031	25400.15
712.375	25266.37
712.719	25460.49
713.063	25298.46
713.407	25371.45
713.75	25292.13
714.094	25204.68
714.438	25215.75
714.782	25157.9
715.125	24987.28
715.469	25232.02
715.812	24994.51
716.156	24907.28
716.499	24872.71
716.843	24951.12
717.186	24822.09
717.53	24965.13
717.873	24877.68
718.216	24850.11
718.559	24755.2
718.902	24531.7
719.246	24760.39
719.589	24597.01
719.932	24575.77
720.275	24620.06
720.617	24558.14
720.96	24491.47
721.303	24554.3
721.646	24565.15
721.989	24414.64
722.331	24437.92
722.674	24406.28
723.016	24441.53
723.359	24435.88
723.701	24385.94
724.044	24244.93
724.386	24331.7
724.729	24430.91
725.071	24405.15
725.413	24280.41
725.755	24398.14
726.097	24244.25
726.439	24202.67
726.782	24232.05
727.124	24307.3
727.465	24260.07
727.807	24102.33
728.149	24159.51
728.491	24101.43
728.833	24278.15
729.175	24138.49
729.516	23990.47
729.858	24078.83
730.199	24053.07
730.541	24059.4
730.882	24150.69
731.224	24070.02
731.565	24037.48
731.906	24051.26
732.248	24072.95
732.589	23983.01
732.93	23994.31
733.271	23973.07
733.612	23974.65
733.953	24047.42
734.294	23977.14
734.635	24035.44
734.976	24061.88
735.317	24038.83
735.658	23985.95
735.999	23959.74
736.339	23999.96
736.68	24005.61
737.021	24037.7
737.361	23988.66
737.702	24261.65
738.042	24066.18
738.383	24142.33
738.723	24168.77
739.063	24039.96
739.404	24231.37
739.744	24102.33
740.084	24146.17
740.424	24249.9
740.764	24201.99
741.104	24380.29
741.444	24245.15
741.784	24124.25
742.124	24252.38
742.464	24355.66
742.804	24349.11
743.143	24386.62
743.483	24403.12
743.823	24298.26
744.162	24451.25
744.502	24390.23
744.841	24420.74
745.181	24679.04
745.52	24457.8
745.86	24565.82
746.199	24693.96
746.538	24582.55
746.877	24900.73
747.216	24876.78
747.556	24782.77
747.895	24894.85
748.234	24859.83
748.573	24919.71
748.911	24915.87
749.25	24953.16
749.589	24847.85
749.928	25140.5
750.267	25169.87
750.605	25264.56
750.944	25233.83
751.283	25201.51
751.621	25316.54
751.96	25223.21
752.298	25526.7
752.636	25532.58
752.975	25496.65
753.313	25476.08
753.651	25768.05
753.989	25644.66
754.327	25793.81
754.666	25611.45
755.004	25760.37
755.342	25849.86
755.679	25872.23
756.017	25773.02
756.355	26093.24
756.693	26070.64
757.031	26166.68
757.368	26115.61
757.706	26172.33
758.044	26018.44
758.381	26138.89
758.719	26216.4
759.056	26307.7
759.394	26260.47
759.731	26123.07
760.068	26228.15
760.405	26387.7
760.743	26202.39
761.08	26409.84
761.417	26360.35
761.754	26205.1
762.091	26324.19
762.428	26254.37
762.765	26093.47
763.102	26351.09
763.438	26319
763.775	26283.52
764.112	26253.91
764.449	26257.53
764.785	26142.05
765.122	26259.34
765.458	26112.45
765.795	26091.43
766.131	26235.16
766.467	26076.29
766.804	25978.67
767.14	25899.8
767.476	25942.06
767.812	25888.05
768.148	26006.92
768.485	25861.61
768.821	25715.4
769.157	25857.09
769.492	25736.64
769.828	25756.53
770.164	25592.24
770.5	25465.91
770.836	25500.04
771.171	25430.66
771.507	25463.88
771.842	25178.24
772.178	25204
772.513	25180.5
772.849	25044.91
773.184	25175.52
773.519	24994.06
773.855	24870.45
774.19	24932.14
774.525	24914.74
774.86	24693.73
775.195	24651.02
775.53	24577.12
775.865	24493.06
776.2	24390.46
776.535	24228.43
776.87	24318.82
777.205	24191.14
777.539	24014.88
777.874	24132.39
778.209	23859.17
778.543	23921.09
778.878	23789.57
779.212	23889.68
779.547	23549.58
779.881	23580.99
780.215	23559.3
780.55	23538.96
780.884	23353.88
781.218	23285.86
781.552	23398.17
781.886	23161.79
782.22	23063.94
782.554	22993.89
782.888	22829.37
783.222	22770.62
783.556	22666.44
783.889	22645.2
784.223	22440.91
784.557	22470.96
784.89	22590.51
785.224	22344.19
785.557	22236.17
785.891	22088.37
786.224	22077.98
786.558	22161.59
786.891	21999.11
787.224	21856.06
787.557	21764.99
787.891	21757.54
788.224	21559.12
788.557	21638.89
788.89	21604.32
789.223	21469.41
789.556	21314.38
789.888	21413.59
790.221	21183.54
790.554	21141.73
790.887	21121.17
791.219	21020.83
791.552	20925.47
791.884	20980.61
792.217	20782.87
792.549	20795.98
792.882	20614.06
793.214	20635.98
793.546	20645.02
793.879	20490.45
794.211	20366.84
794.543	20424.46
794.875	20369.1
795.207	20292.26
795.539	20277.57
795.871	20237.8
796.203	20131.59
796.535	19944.7
796.867	19991.48
797.198	19807.08
797.53	19837.59
797.862	19599.63
798.193	19762.79
798.525	19520.08
798.856	19605.28
799.188	19400.31
799.519	19359.41
799.85	19332.29
800.182	19328.45
800.513	19271.95
800.844	19014.33
801.175	19239.64
801.506	19206.64
801.837	19042.8
802.168	19012.75
802.499	19008.45
802.83	18883.26
803.161	18882.58
803.491	18894.79
803.822	18856.82
804.153	18693.89
804.483	18561.91
804.814	18581.8
805.145	18600.78
805.475	18505.87
805.805	18446.89
806.136	18462.71
806.466	18456.15
806.796	18374.12
807.126	18297.97
807.457	18158.76
807.787	18277.4
808.117	18169.83
808.447	18020.68
808.777	18141.81
809.107	18003.74
809.436	17900.69
809.766	17895.04
810.096	17883.96
810.426	17818.88
810.755	17864.76
811.085	17790.63
811.414	17700.69
811.744	17626.12
812.073	17668.6
812.403	17553.58
812.732	17476.74
813.061	17660.47
813.39	17410.98
813.719	17442.85
814.049	17458.67
814.378	17413.24
814.707	17324.88
815.036	17280.14
815.365	17243.3
815.693	17180.03
816.022	17203.3
816.351	17119.47
816.68	17072.91
817.008	17028.39
817.337	16901.39
817.665	16975.97
817.994	16972.35
818.322	16934.61
818.651	16921.96
818.979	16768.06
819.307	16834.95
819.636	16799.93
819.964	16685.58
820.292	16750.44
820.62	16615.98
820.948	16746.82
821.276	16792.69
821.604	16697.56
821.932	16748.63
822.259	16694.39
822.587	16645.58
822.915	16639.93
823.243	16653.26
823.57	16627.95
823.898	16678.57
824.225	16615.3
824.553	16540.95
824.88	16547.73
825.207	16715.63
825.535	16592.93
825.862	16665.69
826.189	16600.38
826.516	16662.98
826.843	16725.58
827.17	16659.36
827.497	16773.03
827.824	16652.81
828.151	16846.93
828.478	16592.93
828.805	16763.77
829.131	16676.31
829.458	16683.32
829.785	16545.69
830.111	16647.16
830.438	16662.75
830.764	16656.88
831.09	16744.79
831.417	16568.75
831.743	16713.15
832.069	16617.33
832.395	16646.94
832.722	16703.43
833.048	16601.74
833.374	16570.1
833.7	16481.06
834.026	16546.82
834.351	16509.31
834.677	16565.81
835.003	16589.99
835.329	16514.51
835.654	16553.6
835.98	16413.49
836.306	16451.91
836.631	16412.82
836.956	16540.95
837.282	16488.97
837.607	16417.11
837.932	16400.61
838.258	16327.85
838.583	16333.27
838.908	16241.75
839.233	16205.82
839.558	16271.8
839.883	16296.44
840.208	16238.58
840.533	16225.25
840.858	16182.31
841.182	16169.89
841.507	16150.9
841.832	16076.33
842.156	16052.83
842.481	16035.2
842.805	15955.43
843.13	15856.67
843.454	15906.84
843.778	15828.2
844.103	15805.83
844.427	15710.91
844.751	15834.98
845.075	15705.72
845.399	15743.23
845.723	15609
846.047	15656.9
846.371	15426.18
846.695	15447.42
847.019	15452.39
847.343	15270.02
847.666	15232.28
847.99	15220.76
848.313	15087.65
848.637	15109.57
848.96	15118.61
849.284	15083.59
849.607	15023.93
849.931	14986.64
850.254	14830.94
850.577	14729.7
850.9	14705.07
851.223	14758.4
851.546	14604.73
851.869	14581
852.192	14710.04
852.515	14423.04
852.838	14352.31
853.161	14315.25
853.483	14277.05
853.806	14287.9
854.129	14219.65
854.451	14156.83
854.774	14000.23
855.096	13969.27
855.419	14007.68
855.741	13980.11
856.063	13894.01
856.385	13852.88
856.708	13804.3
857.03	13775.15
857.352	13732.66
857.674	13654.92
857.996	13661.7
858.318	13575.15
858.64	13653.34
858.961	13541.71
859.283	13432.56
859.605	13382.84
859.926	13399.11
860.248	13397.98
860.57	13363.86
860.891	13326.12
861.212	13256.97
861.534	13298.32
861.855	13178.78
862.176	13258.1
862.498	13260.81
862.819	13279.11
863.14	13189.62
863.461	13159.34
863.782	13035.28
864.103	13097.65
864.424	13041.15
864.745	13043.19
865.065	12977.43
865.386	12862.85
865.707	12956.86
866.027	12900.82
866.348	12893.59
866.668	12854.72
866.989	12851.1
867.309	12759.35
867.63	12748.28
867.95	12788.28
868.27	12664.22
868.59	12784.89
868.91	12683.65
869.23	12660.37
869.55	12609.08
869.87	12691.78
870.19	12585.35
870.51	12576.76
870.83	12557.33
871.15	12499.47
871.469	12419.02
871.789	12585.35
872.109	12554.39
872.428	12491.34
872.748	12552.58
873.067	12371.57
873.386	12436.42
873.706	12396.2
874.025	12357.33
874.344	12308.97
874.663	12322.3
874.982	12330.21
875.301	12304.22
875.62	12289.99
875.939	12215.19
876.258	12305.13
876.577	12177
876.896	12216.77
877.214	12253.83
877.533	12146.04
877.852	12163.66
878.17	12194.17
878.489	12164.79
878.807	12096.09
879.125	12041.18
879.444	12059.03
879.762	12021.75
880.08	12101.29
880.398	11915.53
880.716	11900.39
881.034	11951.24
881.352	11955.53
881.67	11884.8
881.988	11898.59
882.306	11809.32
882.624	11845.93
882.941	11735.2
883.259	11725.93
883.577	11692.94
883.894	11730.68
884.212	11675.54
884.529	11691.81
884.846	11554.41
885.164	11568.65
885.481	11526.39
885.798	11534.98
886.115	11450.91
886.432	11486.84
886.75	11472.61
887.067	11433.51
887.383	11421.54
887.7	11434.19
888.017	11335.89
888.334	11371.82
888.651	11299.05
888.967	11278.71
889.284	11304.02
889.6	11201.65
889.917	11141.32
890.233	11170.69
890.55	11137.25
890.866	11064.26
891.182	11120.53
891.498	11125.05
891.815	11053.41
892.131	11008.89
892.447	10991.94
892.763	10897.48
893.079	10929.8
893.395	10889.12
893.71	10870.36
894.026	10837.6
894.342	10773.87
894.657	10750.59
894.973	10668.34
895.289	10705.85
895.604	10631.27
895.92	10673.53
896.235	10562.58
896.55	10562.8
896.865	10516.93
897.181	10472.63
897.496	10463.37
897.811	10400.55
898.126	10343.37
898.441	10307.67
898.756	10340.66
899.071	10209.59
899.386	10318.74
899.7	10172.08
900.015	10205.52
900.33	10068.8
900.644	10114.68
900.959	10084.85
901.273	10064.96
901.588	9947.9
901.902	9910.62
902.216	9866.77
902.531	9803.27
902.845	9866.77
903.159	9797.85
903.473	9728.47
903.787	9660.68
904.101	9624.75
904.415	9658.19
904.729	9608.7
905.042	9611.19
905.356	9509.72
905.67	9444.19
905.984	9505.43
906.297	9509.27
906.611	9363.96
906.924	9319.22
907.237	9391.98
907.551	9338.2
907.864	9268.15
908.177	9263.4
908.491	9275.83
908.804	9232.21
909.117	9173.46
909.43	9111.31
909.743	9031.32
910.056	9034.71
910.368	8944.31
910.681	9001.94
910.994	8926.01
911.307	8899.57
911.619	8844.2
911.932	8799.46
912.244	8696.18
912.557	8790.87
912.869	8662.51
913.181	8616.86
913.494	8584.1
913.806	8573.93
914.118	8520.82
914.43	8521.05
914.742	8480.37
915.054	8454.83
915.366	8464.55
915.678	8430.88
915.99	8374.61
916.302	8339.81
916.613	8265.01
916.925	8310.88
917.236	8238.79
917.548	8182.98
917.859	8172.81
918.171	8095.75
918.482	8026.6
918.794	8057.33
919.105	8022.08
919.416	8003.09
919.727	7958.35
920.038	7880.84
920.349	7877.22
920.66	7768.07
920.971	7821.63
921.282	7823.44
921.593	7732.82
921.903	7679.94
922.214	7685.81
922.525	7541.86
922.835	7608.75
923.146	7629.77
923.456	7560.62
923.767	7529.89
924.077	7538.7
924.387	7441.08
924.697	7477.23
925.008	7389.1
925.318	7352.26
925.628	7366.95
925.938	7336.9
926.248	7280.4
926.558	7269.1
926.867	7284.24
927.177	7272.49
927.487	7175.55
927.796	7085.6
928.106	7123.12
928.416	7072.5
928.725	7067.75
929.034	7010.8
929.344	7042.89
929.653	6934.42
929.962	6876.8
930.271	6893.29
930.581	6921.77
930.89	6818.27
931.199	6805.61
931.508	6782.56
931.817	6770.13
932.125	6748.66
932.434	6682
932.743	6688.1
933.051	6643.13
933.36	6602.23
933.669	6580.08
933.977	6570.59
934.286	6522.46
934.594	6516.35
934.902	6485.17
935.21	6421.67
935.519	6407.88
935.827	6406.07
936.135	6359.52
936.443	6343.03
936.751	6334.21
937.059	6319.52
937.367	6262.58
937.674	6209.47
937.982	6211.96
938.29	6193.42
938.597	6191.39
938.905	6076.82
939.213	6129.02
939.52	6101.9
939.827	6105.07
940.135	6039.53
940.442	6043.37
940.749	5996.14
941.056	5935.58
941.363	5904.62
941.67	5899.2
941.977	5893.32
942.284	5870.27
942.591	5828.69
942.898	5873.66
943.205	5866.88
943.511	5740.1
943.818	5771.97
944.125	5740.1
944.431	5679.99
944.738	5689.48
945.044	5622.59
945.35	5613.1
945.657	5597.73
945.963	5564.06
946.269	5494.23
946.575	5525.19
946.881	5504.18
947.187	5480
947.493	5498.75
947.799	5484.29
948.105	5398.87
948.41	5323.62
948.716	5338.53
949.022	5299.89
949.327	5302.15
949.633	5264.86
949.938	5285.2
950.244	5292.66
950.549	5210.85
950.854	5197.97
951.16	5175.6
951.465	5180.34
951.77	5063.96
952.075	5122.72
952.38	5077.97
952.685	5074.13
952.99	5010.63
953.294	5023.51
953.599	4953.46
953.904	4950.75
954.209	4957.07
954.513	4927.92
954.818	4908.71
955.122	4873.91
955.426	4877.98
955.731	4819
956.035	4815.61
956.339	4823.07
956.643	4780.35
956.948	4720.02
957.252	4770.86
957.556	4691.54
957.86	4759.79
958.163	4695.39
958.467	4640.25
958.771	4652.22
959.075	4613.13
959.378	4568.83
959.682	4591.66
959.985	4534.03
960.289	4514.82
960.592	4541.26
960.896	4481.38
961.199	4477.09
961.502	4473.24
961.805	4453.81
962.108	4423.75
962.411	4429.63
962.714	4397.31
963.017	4377.65
963.32	4376.3
963.623	4332.91
963.926	4329.29
964.228	4286.81
964.531	4261.27
964.833	4256.75
965.136	4255.62
965.438	4219.24
965.741	4190.77
966.043	4183.53
966.345	4146.02
966.648	4109.86
966.95	4141.73
967.252	4132.24
967.554	4065.8
967.856	4101.5
968.158	4092.91
968.46	4038
968.761	4052.46
969.063	4009.3
969.365	3978.34
969.666	4010.88
969.968	3954.39
970.269	3951.9
970.571	3921.39
970.872	3915.07
971.174	3905.8
971.475	3881.4
971.776	3879.36
972.077	3859.02
972.378	3808.4
972.679	3819.93
972.98	3753.71
973.281	3755.97
973.582	3781.96
973.883	3741.74
974.183	3733.6
974.484	3694.51
974.785	3686.37
975.085	3683.43
975.386	3675.3
975.686	3622.64
975.986	3604.11
976.287	3649.31
976.587	3589.43
976.887	3575.41
977.187	3541.74
977.487	3519.14
977.787	3543.1
978.087	3533.83
978.387	3515.53
978.687	3511.69
978.987	3458.81
979.286	3452.48
979.586	3453.16
979.885	3404.35
980.185	3423.78
980.484	3414.51
980.784	3360.73
981.083	3391.92
981.382	3342.2
981.682	3343.33
981.981	3358.92
982.28	3303.56
982.579	3292.48
982.878	3273.05
983.177	3244.58
983.475	3246.38
983.774	3219.94
984.073	3220.62
984.372	3200.74
984.67	3211.13
984.969	3181.98
985.267	3168.65
985.566	3162.54
985.864	3166.39
986.162	3147.4
986.461	3129.32
986.759	3092.72
987.057	3098.14
987.355	3050.23
987.653	3040.29
987.951	3035.99
988.249	3024.02
988.547	3003
988.844	3016.79
989.142	2981.08
989.44	3003
989.737	2942.21
990.035	2890.91
990.332	2947.18
990.63	2933.4
990.927	2928.43
991.224	2890.69
991.521	2863.12
991.819	2849.78
992.116	2869.9
992.413	2837.81
992.71	2850.24
993.006	2791.71
993.303	2813.17
993.6	2820.41
993.897	2782.89
994.193	2809.56
994.49	2746.51
994.787	2737.7
995.083	2741.99
995.379	2694.08
995.676	2684.36
995.972	2651.37
996.268	2645.5
996.565	2660.18
996.861	2632.16
997.157	2658.83
997.453	2606.17
997.749	2611.6
998.044	2579.73
998.34	2566.85
998.636	2579.96
998.932	2523.01
999.227	2519.85
999.523	2544.71
999.818	2544.93
1000.114	2518.49
1000.409	2479.4
1000.704	2448.89
1001	2473.97
1001.295	2455.67
1001.59	2444.14
1001.885	2456.12
1002.18	2413.64
1002.475	2390.36
1002.77	2401.21
1003.065	2318.05
1003.359	2385.84
1003.654	2356.92
1003.949	2340.19
1004.243	2333.41
1004.538	2282.57
1004.832	2304.26
1005.127	2278.05
1005.421	2259.29
1005.715	2298.39
1006.009	2233.75
1006.304	2253.42
1006.598	2206.64
1006.892	2212.29
1007.186	2205.96
1007.48	2188.33
1007.773	2145.85
1008.067	2162.57
1008.361	2120.99
1008.655	2138.39
1008.948	2117.6
1009.242	2104.72
1009.535	2094.78
1009.829	2090.48
1010.122	2074.21
1010.415	2060.2
1010.708	2021.78
1011.001	2052.74
1011.295	2008
1011.588	2018.39
1011.881	1975.46
1012.173	1964.38
1012.466	1968
1012.759	1966.64
1013.052	1926.87
1013.344	1922.12
1013.637	1951.28
1013.93	1923.48
1014.222	1903.82
1014.514	1893.42
1014.807	1920.09
1015.099	1879.19
1015.391	1869.24
1015.683	1844.61
1015.976	1824.05
1016.268	1828.34
1016.56	1829.02
1016.851	1791.51
1017.143	1781.34
1017.435	1790.6
1017.727	1798.29
1018.018	1763.94
1018.31	1755.12
1018.602	1755.35
1018.893	1720.1
1019.185	1767.1
1019.476	1681.9
1019.767	1712.86
1020.058	1704.5
1020.35	1690.72
1020.641	1659.98
1020.932	1642.58
1021.223	1624.73
1021.514	1620.21
1021.804	1596.71
1022.095	1606.88
1022.386	1605.07
1022.677	1589.93
1022.967	1579.08
1023.258	1578.4
1023.548	1563.49
1023.839	1522.81
1024.129	1535.02
1024.419	1502.7
1024.709	1518.97
1025	1487.56
1025.29	1484.85
1025.58	1504.51
1025.87	1480.1
1026.16	1465.41
1026.449	1447.56
1026.739	1467
1027.029	1472.19
1027.319	1434.23
1027.608	1435.13
1027.898	1405.75
1028.187	1409.14
1028.477	1394.68
1028.766	1372.08
1029.055	1363.72
1029.344	1374.79
1029.634	1368.24
1029.923	1342.7
1030.212	1332.76
1030.501	1357.85
1030.79	1324.63
1031.078	1320.56
1031.367	1297.73
1031.656	1308.81
1031.945	1300.9
1032.233	1285.76
1032.522	1286.44
1032.81	1271.52
1033.099	1243.5
1033.387	1257.96
1033.675	1242.82
1033.963	1237.4
1034.251	1215.48
1034.54	1194.46
1034.828	1210.28
1035.116	1205.31
1035.403	1185.87
1035.691	1187.45
1035.979	1190.84
1036.267	1167.34
1036.554	1162.14
1036.842	1157.62
1037.129	1125.08
1037.417	1139.55
1037.704	1152.65
1037.992	1105.2
1038.279	1123.5
1038.566	1115.37
1038.853	1115.37
1039.14	1115.37
