Data from 5405_FLMS001491_002.txt Node
Date: Thu Apr 19 16:38:11 BST 2018
User: hsy
Spectrometer: FLMS00149
Trigger mode: 0
Integration Time (sec): 1.000000E-2
Scans to average: 10
Electric dark correction enabled: true
Nonlinearity correction enabled: false
Boxcar width: 0
XAxis mode: Wavelengths
Number of Pixels in Spectrum: 2048
>>>>>Begin Spectral Data<<<<<
341.393	-11.19
341.776	-11.19
342.16	-11.19
342.543	-41.47
342.927	-79.88
343.31	-64.29
343.693	-69.94
344.077	-72.43
344.46	-61.81
344.843	-52.99
345.226	-25.88
345.61	-5.08
345.993	-2.6
346.376	-3.05
346.759	-3.5
347.142	15.25
347.525	20.9
347.908	38.53
348.291	87.34
348.674	105.42
349.057	94.12
349.44	126.89
349.823	129.15
350.206	200.33
350.588	217.51
350.971	215.7
351.354	246.21
351.737	263.16
352.119	248.24
352.502	290.95
352.884	299.09
353.267	280.11
353.65	308.81
354.032	323.49
354.414	343.83
354.797	344.28
355.179	332.99
355.562	348.35
355.944	362.59
356.326	347.22
356.709	363.72
357.091	375.24
357.473	376.6
357.855	356.94
358.238	369.14
358.62	364.4
359.002	375.92
359.384	380.89
359.766	376.83
360.148	365.3
360.53	377.96
360.912	366.21
361.294	355.58
361.676	351.97
362.057	392.65
362.439	364.85
362.821	359.43
363.203	369.14
363.584	356.26
363.966	368.01
364.348	386.77
364.729	359.2
365.111	346.32
365.493	345.41
365.874	360.33
366.256	347.22
366.637	361.91
367.019	354.45
367.4	348.13
367.781	363.49
368.163	340.22
368.544	351.06
368.925	375.02
369.306	363.72
369.688	361.91
370.069	346.09
370.45	344.28
370.831	354.68
371.212	344.28
371.593	356.26
371.974	387
372.355	369.82
372.736	372.08
373.117	371.4
373.498	352.65
373.879	377.28
374.26	353.78
374.641	356.71
375.021	377.73
375.402	372.53
375.783	361.23
376.163	387.22
376.544	371.4
376.925	384.06
377.305	381.8
377.686	399.2
378.066	399.2
378.447	395.58
378.827	381.12
379.208	417.28
379.588	394.68
379.968	387.67
380.349	400.78
380.729	413.44
381.109	413.66
381.489	407.56
381.87	395.58
382.25	418.86
382.63	426.77
383.01	428.58
383.39	416.37
383.77	428.35
384.15	418.63
384.53	430.84
384.91	432.87
385.29	432.42
385.67	443.04
386.049	456.82
386.429	440.1
386.809	437.39
387.189	449.82
387.568	472.87
387.948	459.76
388.328	451.4
388.707	475.35
389.087	466.32
389.466	484.39
389.846	467.45
390.225	476.71
390.605	449.59
390.984	462.7
391.363	478.29
391.743	479.87
392.122	495.69
392.501	505.41
392.881	491.4
393.26	521.23
393.639	508.8
394.018	512.64
394.397	528.46
394.776	509.03
395.155	533.21
395.534	511.06
395.913	528.69
396.292	535.47
396.671	527.33
397.05	544.51
397.429	541.34
397.808	552.41
398.186	550.38
398.565	563.71
398.944	558.29
399.323	574.79
399.701	563.94
400.08	562.81
400.458	564.62
400.837	584.96
401.215	594.22
401.594	597.84
401.972	586.09
402.351	577.72
402.729	590.38
403.107	596.48
403.486	609.14
403.864	603.71
404.242	604.16
404.62	612.07
404.999	621.57
405.377	618.85
405.755	631.96
406.133	663.37
406.511	648.23
406.889	661.11
407.267	661.34
407.645	691.17
408.023	683.26
408.401	683.94
408.779	708.57
409.156	708.12
409.534	709.47
409.912	722.58
410.29	721.22
410.667	776.82
411.045	770.94
411.422	779.75
411.8	745.18
412.178	785.4
412.555	800.54
412.933	778.17
413.31	794.89
413.687	799.87
414.065	811.84
414.442	824.72
414.819	845.29
415.197	827.44
415.574	868.56
415.951	871.5
416.328	872.41
416.705	869.24
417.082	865.4
417.46	890.94
417.837	902.91
418.214	903.59
418.591	918.05
418.967	913.54
419.344	926.19
419.721	921.44
420.098	952.86
420.475	945.17
420.852	947.88
421.228	975.45
421.605	976.81
421.982	988.34
422.358	1001.44
422.735	1008.9
423.111	1019.52
423.488	1019.52
423.864	997.15
424.241	1010.26
424.617	1056.13
424.994	1065.62
425.37	1072.4
425.746	1076.69
426.123	1098.62
426.499	1089.12
426.875	1112.85
427.251	1113.53
427.627	1137.26
428.003	1148.33
428.379	1198.27
428.756	1161.66
429.132	1195.34
429.507	1219.06
429.883	1190.59
430.259	1226.97
430.635	1288.44
431.011	1240.76
431.387	1282.34
431.763	1329.34
432.138	1314.88
432.514	1339.96
432.89	1336.58
433.265	1377.48
433.641	1412.28
434.016	1395.56
434.392	1425.61
434.767	1450.47
435.143	1441.43
435.518	1440.98
435.894	1498.15
436.269	1484.59
436.644	1503.58
437.02	1533.63
437.395	1515.1
437.77	1542.22
438.145	1560.3
438.52	1599.62
438.895	1626.06
439.271	1593.29
439.646	1638.71
440.021	1655.89
440.395	1680.52
440.77	1617.02
441.145	1657.47
441.52	1683.01
441.895	1705.38
442.27	1725.04
442.645	1728.66
443.019	1743.57
443.394	1739.5
443.769	1731.59
444.143	1744.47
444.518	1762.1
444.892	1755.77
445.267	1816.79
445.641	1828.09
446.016	1780.63
446.39	1830.12
446.764	1831.03
447.139	1833.96
447.513	1859.5
447.887	1869.22
448.262	1865.37
448.636	1859.05
449.01	1909.22
449.384	1964.13
449.758	1921.19
450.132	1992.6
450.506	1970
450.88	1970.68
451.254	1974.07
451.628	2016.78
452.002	2042.77
452.376	2049.32
452.75	2080.51
453.123	2106.5
453.497	2125.25
453.871	2132.03
454.244	2191.69
454.618	2210.9
454.992	2232.6
455.365	2254.52
455.739	2266.72
456.112	2303.56
456.486	2327.06
456.859	2355.31
457.232	2392.14
457.606	2392.59
457.979	2415.19
458.352	2496.09
458.725	2505.36
459.099	2517.79
459.472	2551.46
459.845	2595.07
460.218	2617.67
460.591	2624.9
460.964	2640.04
461.337	2649.53
461.71	2740.38
462.083	2726.82
462.456	2803.43
462.829	2811.56
463.201	2825.12
463.574	2849.76
463.947	2848.17
464.32	2918.91
464.692	2963.42
465.065	2970.43
465.438	3026.02
465.81	3065.8
466.183	3055.63
466.555	3102.4
466.928	3159.13
467.3	3162.52
467.672	3169.07
468.045	3298.78
468.417	3289.52
468.789	3305.11
469.161	3325
469.534	3399.57
469.906	3407.26
470.278	3471.21
470.65	3522.96
471.022	3577.19
471.394	3635.95
471.766	3664.88
472.138	3679.56
472.51	3742.61
472.882	3769.28
473.253	3896.28
473.625	3902.38
473.997	3955.49
474.369	3965.88
474.74	4003.62
475.112	4104.64
475.484	4138.54
475.855	4258.76
476.227	4308.25
476.598	4390.51
476.97	4394.57
477.341	4524.29
477.713	4562.48
478.084	4580.33
478.455	4671.4
478.827	4743.94
479.198	4874.11
479.569	4923.6
479.94	4943.71
480.311	5031.62
480.682	5122.69
481.053	5255.57
481.424	5300.54
481.795	5380.08
482.166	5453.53
482.537	5539.85
482.908	5647.87
483.279	5743.69
483.65	5807.87
484.021	5980.75
484.391	5988.88
484.762	6105.49
485.133	6096.45
485.503	6202.44
485.874	6307.52
486.244	6412.15
486.615	6523.56
486.985	6599.04
487.356	6683.78
487.726	6814.85
488.097	6998.35
488.467	7002.64
488.837	7141.85
489.207	7171
489.578	7303.42
489.948	7378.68
490.318	7504.1
490.688	7522.85
491.058	7684.2
491.428	7830.42
491.798	7853.47
492.168	8012.78
492.538	8049.84
492.908	8141.59
493.278	8202.84
493.648	8325.54
494.017	8384.07
494.387	8506.33
494.757	8586.33
495.126	8644.86
495.496	8691.86
495.866	8789.26
496.235	8915.36
496.605	8941.12
496.974	8941.12
497.344	9096.82
497.713	9166.2
498.082	9185.86
498.452	9266.76
498.821	9360.54
499.19	9417.72
499.559	9467.43
499.928	9515.12
500.298	9644.61
500.667	9675.56
501.036	9684.15
501.405	9776.35
501.774	9782.91
502.143	9922.79
502.512	10000.98
502.88	10078.49
503.249	10102.9
503.618	10188.09
503.987	10229.9
504.356	10282.55
504.724	10338.6
505.093	10353.74
505.462	10449.78
505.83	10439.61
506.199	10613.39
506.567	10789.43
506.936	10708.53
507.304	10816.1
507.672	10849.09
508.041	10944.46
508.409	11049.31
508.777	11084.79
509.145	11219.7
509.514	11236.65
509.882	11297.22
510.25	11412.24
510.618	11480.49
510.986	11495.4
511.354	11561.62
511.722	11704.21
512.09	11733.14
512.458	11787.6
512.826	11941.95
513.193	11988.95
513.561	12018.33
513.929	12111.66
514.297	12192.11
514.664	12221.49
515.032	12374.02
515.4	12467.36
515.767	12554.36
516.135	12597.3
516.502	12588.26
516.869	12752.55
517.237	12765.88
517.604	12806.33
517.972	12978.75
518.339	13071.86
518.706	13124.97
519.073	13144.85
519.44	13242.93
519.808	13364.28
520.175	13452.41
520.542	13663.93
520.909	13697.38
521.276	13823.48
521.643	13962.91
522.009	14031.61
522.376	14146.86
522.743	14226.41
523.11	14373.75
523.477	14573.74
523.843	14514.76
524.21	14784.81
524.577	14893.05
524.943	14942.32
525.31	15001.75
525.676	15306.6
526.043	15358.58
526.409	15415.3
526.776	15521.96
527.142	15627.95
527.508	15771.22
527.874	15892.35
528.241	16027.49
528.607	16047.83
528.973	16158.33
529.339	16250.53
529.705	16484.88
530.071	16570.3
530.437	16652.1
530.803	16810.07
531.169	16878.77
531.535	16917.86
531.901	17016.61
532.267	17084.64
532.632	17272.2
532.998	17289.6
533.364	17412.54
533.73	17381.35
534.095	17567.56
534.461	17600.1
534.826	17802.36
535.192	17772.75
535.557	17903.15
535.923	17957.83
536.288	17975.69
536.653	18110.37
537.019	18117.83
537.384	18181.56
537.749	18225.17
538.114	18277.82
538.479	18309.01
538.845	18440.53
539.21	18377.26
539.575	18522.56
539.94	18553.3
540.305	18570.7
540.67	18650.92
541.034	18657.7
541.399	18643.92
541.764	18891.59
542.129	18815.44
542.494	18897.7
542.858	18920.52
543.223	18892.27
543.587	19089.1
543.952	19078.48
544.316	19180.17
544.681	19150.57
545.045	19224.47
545.41	19230.12
545.774	19275.54
546.138	19296.33
546.503	19456.78
546.867	19453.84
547.231	19534.97
547.595	19504.91
547.959	19522.54
548.324	19734.74
548.688	19708.97
549.052	19798.46
549.416	19774.51
549.779	19833.49
550.143	19802.98
550.507	19859.25
550.871	20070.55
551.235	19956.2
551.599	20205.46
551.962	20252.91
552.326	20224.67
552.689	20271.67
553.053	20191.67
553.417	20307.15
553.78	20625.33
554.143	20585.33
554.507	20535.39
554.87	20766.8
555.234	20881.37
555.597	20707.14
555.96	20842.5
556.323	20914.82
556.686	21016.74
557.05	21143.74
557.413	21193.68
557.776	21240.46
558.139	21359.1
558.502	21409.95
558.865	21483.16
559.228	21759.99
559.59	21784.85
559.953	21782.37
560.316	22009.48
560.679	22063.94
561.041	22188.23
561.404	22249.25
561.767	22426.87
562.129	22248.12
562.492	22701.89
562.854	22649.91
563.217	22756.58
563.579	22924.26
563.941	23159.96
564.304	23270.01
564.666	23423.23
565.028	23449.21
565.39	23589.55
565.753	23782.54
566.115	23914.74
566.477	24109.08
566.839	24218.23
567.201	24462.75
567.563	24420.94
567.925	24759.24
568.287	24858.22
568.648	24961.04
569.01	25164.65
569.372	25618.65
569.734	25476.05
570.095	25626.33
570.457	25953.1
570.819	26104.96
571.18	26171.63
571.542	26430.6
571.903	26505.86
572.265	26854.55
572.626	26887.54
572.987	27019.97
573.349	27293.41
573.71	27457.92
574.071	27617.92
574.432	27803.45
574.794	28101.97
575.155	28141.07
575.516	28186.49
575.877	28438.24
576.238	28518.69
576.599	28750.09
576.96	28751
577.32	28923.87
577.681	29042.29
578.042	29276.86
578.403	29446.57
578.763	29383.07
579.124	29600.92
579.485	29654.7
579.845	29874.58
580.206	29805.88
580.566	29764.3
580.927	29995.93
581.287	30120
581.648	30077.97
582.008	30296.72
582.368	30469.59
582.728	30300.33
583.089	30366.09
583.449	30405.42
583.809	30428.24
584.169	30490.84
584.529	30437.28
584.889	30650.15
585.249	30526.99
585.609	30553.66
585.969	30683.83
586.329	30577.61
586.688	30787.1
587.048	30726.08
587.408	30788.23
587.768	30748.46
588.127	30717.72
588.487	30615.13
588.846	30984.38
589.206	30636.6
589.565	30692.19
589.925	30874.56
590.284	30873.2
590.643	30903.26
591.003	30805.86
591.362	31074.55
591.721	30954.33
592.08	31122.91
592.44	31110.03
592.799	30899.64
593.158	30929.92
593.517	30984.84
593.876	31160.65
594.235	31021.22
594.593	30959.07
594.952	31119.52
595.311	31088.11
595.67	30972.63
596.029	31301.66
596.387	31348.44
596.746	31256.24
597.104	31066.19
597.463	31207.65
597.822	31431.6
598.18	31320.19
598.538	31237.26
598.897	31500.3
599.255	31331.49
599.613	31749.79
599.972	31439.51
600.33	31484.26
600.688	31460.98
601.046	31541.88
601.404	31762.44
601.762	31635.67
602.12	31715.89
602.478	31726.74
602.836	31829.33
603.194	31652.16
603.552	31677.02
603.91	31775.1
604.268	31785.49
604.625	31817.36
604.983	31950.01
605.341	31727.87
605.698	32040.85
606.056	32260.06
606.413	32093.05
606.771	32201.75
607.128	32212.6
607.485	32086.05
607.843	32269.32
608.2	32379.83
608.557	32365.36
608.914	32413.95
609.272	32558.58
609.629	32679.25
609.986	32754.96
610.343	32638.8
610.7	32945.46
611.057	32838.12
611.414	32823.66
611.771	32955.18
612.127	33064.55
612.484	33035.4
612.841	33044.67
613.198	32932.81
613.554	32950.43
613.911	33354.26
614.267	33166.25
614.624	33192.46
614.98	33359.69
615.337	33516.29
615.693	33494.6
616.05	33502.51
616.406	33589.29
616.762	33451.89
617.118	33502.73
617.475	33411.89
617.831	33748.15
618.187	33654.6
618.543	33787.7
618.899	33959.9
619.255	33878.54
619.611	33930.29
619.967	34040.8
620.323	34118.76
620.678	34048.94
621.034	33871.09
621.39	34001.48
621.746	34216.16
622.101	34280.57
622.457	34038.77
622.812	34257.29
623.168	34255.71
623.523	34158.08
623.879	34246.44
624.234	34173
624.589	34188.82
624.945	34269.72
625.3	34221.81
625.655	34265.2
626.01	34302.94
626.365	34165.77
626.72	34210.96
627.075	34254.81
627.43	34227.69
627.785	34259.55
628.14	34177.97
628.495	34335.71
628.85	34253.45
629.205	34365.99
629.559	34349.94
629.914	34116.28
630.269	34152.66
630.623	34035.38
630.978	33965.77
631.332	34168.71
631.687	34121.7
632.041	34066.11
632.396	34097.3
632.75	34107.01
633.104	33987.47
633.459	33902.05
633.813	33897.75
634.167	33831.99
634.521	33894.36
634.875	33821.82
635.229	33804.87
635.583	33565.56
635.937	33561.72
636.291	33606.91
636.645	33589.96
636.999	33443.75
637.352	33503.64
637.706	33253.25
638.06	33525.56
638.413	33464.54
638.767	33243.98
639.121	33317.88
639.474	33122.41
639.828	33065.91
640.181	33157.66
640.534	33283.08
640.888	33085.8
641.241	32888.74
641.594	32909.98
641.947	32988.17
642.301	32954.73
642.654	32873.82
643.007	32934.84
643.36	33045.8
643.713	32810.78
644.066	32839.93
644.419	32739.59
644.771	32392.48
645.124	32078.59
645.477	32128.53
645.83	32058.03
646.182	31853.51
646.535	31884.25
646.888	32122.43
647.24	31980.29
647.593	32049.44
647.945	32008.99
648.298	31819.62
648.65	31649.9
649.002	31492.17
649.355	31392.51
649.707	31161.78
650.059	31134.66
650.411	31580.3
650.763	31880.86
651.115	32580.73
651.467	32295.08
651.819	32255.54
652.171	32159.49
652.523	32119.27
652.875	32074.52
653.227	31940.52
653.578	32240.62
653.93	32121.3
654.282	32065.94
654.633	32000.4
654.985	31983.68
655.337	32065.48
655.688	32008.76
656.039	32083.56
656.391	31786.85
656.742	31867.98
657.094	31910.69
657.445	31895.77
657.796	32044.92
658.147	31835.43
658.498	31899.84
658.849	31920.4
659.2	31863.91
659.551	31952.72
659.902	32122.66
660.253	31878.6
660.604	31958.82
660.955	31867.98
661.306	32074.98
661.656	31962.44
662.007	32025.71
662.358	32029.33
662.708	31996.33
663.059	31942.78
663.409	31911.36
663.76	32104.58
664.11	32008.08
664.461	32083.56
664.811	32026.62
665.161	32111.81
665.511	31916.34
665.862	32024.36
666.212	31998.82
666.562	32097.57
666.912	32071.13
667.262	31967.63
667.612	31869.78
667.962	31924.02
668.312	31937.13
668.662	32000.85
669.011	31965.15
669.361	32004.24
669.711	32003.34
670.06	31777.81
670.41	31790.92
670.76	31873.4
671.109	32026.39
671.459	31977.8
671.808	31869.33
672.157	31949.1
672.507	31698.49
672.856	31776.23
673.205	31837.02
673.554	31813.06
673.904	31681.54
674.253	32044.02
674.602	31751.37
674.951	31429.8
675.3	31154.1
675.649	31631.15
675.998	31685.38
676.346	31594.31
676.695	31784.14
677.044	31516.35
677.393	31534.88
677.741	31626.63
678.09	31485.39
678.438	31435.44
678.787	31494.88
679.135	31452.17
679.484	31208.78
679.832	31312.28
680.181	31177.6
680.529	31326.75
680.877	31161.78
681.225	31116.36
681.573	31326.52
681.922	31085.85
682.27	31000.2
682.618	31024.83
682.966	31017.15
683.314	30887.89
683.661	30866.87
684.009	30711.62
684.357	30746.65
684.705	30609.48
685.053	30594.79
685.4	30435.7
685.748	30461.46
686.095	30283.16
686.443	30269.83
686.79	30209.26
687.138	30334.46
687.485	30181.47
687.832	30032.54
688.18	29982.15
688.527	29931.53
688.874	29914.13
689.221	29933.56
689.568	29669.84
689.915	29567.7
690.262	29659.22
690.609	29512.56
690.956	29392.11
691.303	29366.8
691.65	29248.16
691.997	29203.64
692.344	29042.29
692.69	29060.82
693.037	28989.18
693.383	28746.25
693.73	28983.98
694.077	28575.18
694.423	28619.02
694.769	28499.48
695.116	28374.73
695.462	28247.05
695.808	28224.23
696.155	28222.65
696.501	28027.4
696.847	28046.16
697.193	27733.17
697.539	27803.45
697.885	27633.28
698.231	27578.14
698.577	27494.76
698.923	27509.45
699.269	27170.47
699.614	27258.15
699.96	27039.4
700.306	27163.47
700.651	26881.44
700.997	26817.49
701.342	26807.09
701.688	26708.11
702.033	26590.37
702.379	26596.02
702.724	26464.28
703.069	26517.38
703.415	26173.44
703.76	26178.63
704.105	26148.13
704.45	26066.77
704.795	25948.36
705.14	25867.68
705.485	25842.37
705.83	25610.74
706.175	25791.98
706.52	25606.22
706.865	25576.84
707.209	25448.71
707.554	25472.44
707.899	25392.21
708.243	25254.36
708.588	25262.73
708.932	25075.84
709.277	25063.18
709.621	24985.9
709.966	24935.5
710.31	24900.02
710.654	24806.47
710.998	24861.38
711.342	24880.36
711.687	24698.67
712.031	24631.33
712.375	24609.86
712.719	24597.66
713.063	24572.35
713.407	24624.55
713.75	24414.61
714.094	24375.29
714.438	24278.34
714.782	24386.14
715.125	24087.62
715.469	24376.65
715.812	24181.62
716.156	24131.91
716.499	24089.42
716.843	24243.54
717.186	24017.33
717.53	24071.57
717.873	24121.51
718.216	23999.93
718.559	23957.9
718.902	23853.72
719.246	23877.23
719.589	23854.85
719.932	23822.09
720.275	23756.1
720.617	23735.76
720.96	23764.69
721.303	23693.5
721.646	23855.3
721.989	23689.43
722.331	23739.6
722.674	23649.89
723.016	23707.74
723.359	23451.93
723.701	23609.44
724.044	23477.69
724.386	23453.96
724.729	23607.85
725.071	23493.05
725.413	23450.8
725.755	23544.58
726.097	23496.67
726.439	23417.12
726.782	23425.26
727.124	23430.91
727.465	23447.63
727.807	23290.35
728.149	23385.49
728.491	23405.15
728.833	23333.06
729.175	23378.26
729.516	23360.18
729.858	23336
730.199	23368.31
730.541	23362.44
730.882	23381.42
731.224	23431.14
731.565	23269.11
731.906	23334.41
732.248	23418.48
732.589	23295.77
732.93	23374.87
733.271	23279.95
733.612	23208.99
733.953	23398.14
734.294	23339.61
734.635	23321.76
734.976	23431.14
735.317	23324.02
735.658	23344.36
735.999	23306.62
736.339	23389.1
736.68	23435.43
737.021	23418.48
737.361	23367.41
737.702	23524.01
738.042	23387.07
738.383	23488.08
738.723	23536.67
739.063	23414.41
739.404	23610.34
739.744	23507.29
740.084	23406.5
740.424	23661.64
740.764	23491.7
741.104	23703.44
741.444	23510.23
741.784	23594.07
742.124	23605.14
742.464	23677.68
742.804	23647.17
743.143	23657.34
743.483	23752.93
743.823	23621.64
744.162	23700.05
744.502	23874.97
744.841	23847.17
745.181	23973.72
745.52	23882.65
745.86	23936.66
746.199	24003.55
746.538	23954.51
746.877	24211.68
747.216	24141.85
747.556	24138.01
747.895	24267.27
748.234	24187.73
748.573	24277.44
748.911	24346.59
749.25	24326.48
749.589	24322.86
749.928	24414.16
750.267	24496.87
750.605	24499.13
750.944	24563.31
751.283	24533.93
751.621	24580.48
751.96	24647.15
752.298	24787.26
752.636	24741.38
752.975	24856.41
753.313	24803.98
753.651	25136.18
753.989	25006.46
754.327	25106.57
754.666	25123.97
755.004	25240.13
755.342	25209.85
755.679	25411.2
756.017	25156.29
756.355	25487.58
756.693	25444.42
757.031	25616.84
757.368	25478.54
757.706	25570.06
758.044	25530.74
758.381	25645.99
758.719	25650.06
759.056	25735.48
759.394	25713.11
759.731	25554.02
760.068	25596.73
760.405	25670.4
760.743	25622.04
761.08	25714.92
761.417	25657.74
761.754	25696.84
762.091	25822.71
762.428	25704.75
762.765	25775.93
763.102	25733.45
763.438	25770.96
763.775	25650.29
764.112	25793.56
764.449	25768.02
764.785	25731.87
765.122	25737.74
765.458	25582.04
765.795	25709.04
766.131	25698.87
766.467	25660.46
766.804	25568.03
767.14	25292.78
767.476	25574.13
767.812	25530.97
768.148	25517.41
768.485	25422.5
768.821	25382.04
769.157	25197.42
769.492	25384.98
769.828	25296.62
770.164	25092.79
770.5	25022.51
770.836	25118.32
771.171	25149.73
771.507	24921.49
771.842	25000.36
772.178	24852.57
772.513	24829.97
772.849	24864.77
773.184	24859.8
773.519	24752.46
773.855	24598.56
774.19	24578.9
774.525	24495.97
774.86	24456.42
775.195	24349.76
775.53	24203.32
775.865	24187.73
776.2	24054.4
776.535	23968.3
776.87	23899.15
777.205	23786.61
777.539	23799.49
777.874	23731.92
778.209	23535.54
778.543	23613.05
778.878	23474.07
779.212	23485.15
779.547	23305.04
779.881	23410.8
780.215	23161.09
780.55	23295.32
780.884	23023.46
781.218	22942.79
781.552	23083.12
781.886	22839.51
782.22	22730.59
782.554	22703.7
782.888	22524.49
783.222	22430.94
783.556	22440.43
783.889	22321.79
784.223	22246.99
784.557	22207.21
784.89	22164.73
785.224	22029.82
785.557	21986.2
785.891	21816.26
786.224	21875.92
786.558	21851.97
786.891	21661.69
787.224	21609.49
787.557	21526.78
787.891	21520.23
788.224	21345.99
788.557	21340.12
788.89	21378.31
789.223	21210.4
789.556	21065.1
789.888	21163.62
790.221	20970.41
790.554	20931.09
790.887	20889.28
791.219	20779.91
791.552	20722.73
791.884	20630.53
792.217	20653.36
792.549	20536.3
792.882	20307.83
793.214	20296.98
793.546	20376.75
793.879	20301.95
794.211	20095.4
794.543	20147.61
794.875	20112.35
795.207	20062.41
795.539	19927.27
795.871	19975.18
796.203	19835.98
796.535	19728.41
796.867	19700.16
797.198	19678.69
797.53	19573.84
797.862	19388.76
798.193	19530.9
798.525	19438.02
798.856	19449.09
799.188	19149.67
799.519	19111.47
799.85	19081.87
800.182	19050.01
800.513	19107.63
800.844	18920.29
801.175	18969.56
801.506	18960.97
801.837	18822.22
802.168	18723.91
802.499	18857.92
802.83	18582
803.161	18477.14
803.491	18619.74
803.822	18579.96
804.153	18455.45
804.483	18297.94
804.814	18339.52
805.145	18271.27
805.475	18379.29
805.805	18255.68
806.136	18255.23
806.466	18062.24
806.796	18015.23
807.126	18036.02
807.457	17959.64
807.787	18028.34
808.117	17885.52
808.447	17835.12
808.777	17864.73
809.107	17694.56
809.436	17659.99
809.766	17681
810.096	17724.62
810.426	17564.85
810.755	17609.14
811.085	17523.04
811.414	17465.87
811.744	17396.72
812.073	17403.05
812.403	17255.48
812.732	17099.78
813.061	17337.74
813.39	17135.26
813.719	17067.46
814.049	17269.26
814.378	17121.02
814.707	17007.58
815.036	17052.77
815.365	16937.52
815.693	16882.15
816.022	16850.29
816.351	16874.47
816.68	16689.17
817.008	16771.88
817.337	16609.17
817.665	16621.82
817.994	16667.7
818.322	16646.45
818.651	16595.38
818.979	16547.02
819.307	16559.9
819.636	16512.45
819.964	16489.62
820.292	16473.13
820.62	16430.87
820.948	16520.58
821.276	16521.03
821.604	16453.69
821.932	16503.41
822.259	16426.35
822.587	16484.65
822.915	16408.5
823.243	16406.01
823.57	16383.19
823.898	16516.74
824.225	16311.77
824.553	16361.26
824.88	16409.63
825.207	16422.05
825.535	16407.59
825.862	16437.42
826.189	16376.63
826.516	16465.44
826.843	16475.84
827.17	16488.72
827.497	16476.06
827.824	16468.15
828.151	16517.87
828.478	16392.45
828.805	16526.01
829.131	16410.08
829.458	16571.65
829.785	16309.51
830.111	16468.83
830.438	16511.32
830.764	16539.57
831.09	16481.71
831.417	16400.36
831.743	16465.89
832.069	16468.83
832.395	16317.88
832.722	16420.7
833.048	16339.8
833.374	16432.9
833.7	16255.05
834.026	16366.69
834.351	16310.19
834.677	16374.6
835.003	16386.12
835.329	16293.7
835.654	16248.27
835.98	16266.35
836.306	16207.82
836.631	16188.84
836.956	16280.36
837.282	16262.28
837.607	16198.33
837.932	16156.98
838.258	16187.94
838.583	16127.82
838.908	16096.41
839.233	16106.13
839.558	15973.7
839.883	16062.52
840.208	15927.6
840.533	16011.67
840.858	15987.26
841.182	15921.28
841.507	15926.7
841.832	15793.82
842.156	15958.56
842.481	15779.81
842.805	15794.27
843.13	15751.11
843.454	15722.19
843.778	15656.42
844.103	15661.62
844.427	15521.29
844.751	15574.39
845.075	15531.46
845.399	15559.7
845.723	15495.3
846.047	15510.21
846.371	15374.62
846.695	15247.62
847.019	15302.31
847.343	15173.05
847.666	15159.04
847.99	15043.56
848.313	14971.47
848.637	15011.24
848.96	14894.64
849.284	14939.61
849.607	14744.13
849.931	14764.02
850.254	14636.56
850.577	14609.22
850.9	14473.86
851.223	14473.86
851.546	14343.92
851.869	14353.41
852.192	14329.23
852.515	14186.41
852.838	14201.32
853.161	14164.71
853.483	14169.91
853.806	14104.6
854.129	14078.84
854.451	14006.07
854.774	13905.28
855.096	13882.01
855.419	13773.76
855.741	13823.03
856.063	13726.08
856.385	13632.97
856.708	13587.55
857.03	13648.12
857.352	13599.98
857.674	13622.58
857.996	13491.74
858.318	13324.96
858.64	13488.57
858.961	13369.93
859.283	13320.44
859.605	13256.04
859.926	13269.14
860.248	13254.91
860.57	13167.9
860.891	13186.66
861.212	13116.6
861.534	13026.89
861.855	13050.62
862.176	13082.93
862.498	13074.57
862.819	13067.34
863.14	12956.16
863.461	12837.97
863.782	12889.27
864.103	12938.76
864.424	12864.41
864.745	12774.24
865.065	12783.51
865.386	12828.93
865.707	12753.45
866.027	12823.05
866.348	12716.61
866.668	12636.39
866.989	12697.63
867.309	12576.51
867.63	12628.48
867.95	12666.67
868.27	12529.95
868.59	12588.71
868.91	12491.99
869.23	12574.02
869.55	12454.7
869.87	12524.53
870.19	12432.55
870.51	12427.13
870.83	12480.69
871.15	12393.23
871.469	12412.22
871.789	12422.16
872.109	12453.34
872.428	12374.25
872.748	12271.88
873.067	12338.55
873.386	12371.99
873.706	12269.17
874.025	12265.33
874.344	12246.57
874.663	12196.18
874.982	12198.44
875.301	12223.97
875.62	12139.45
875.939	12141.04
876.258	12090.42
876.577	12007.25
876.896	12073.47
877.214	12011.55
877.533	12046.8
877.852	11972.23
878.17	12059.46
878.489	12035.05
878.807	12026.69
879.125	11906.24
879.444	11997.09
879.762	11998.67
880.08	12010.64
880.398	11860.59
880.716	11923.87
881.034	11909.4
881.352	11819.24
881.67	11690.88
881.988	11812.23
882.306	11768.39
882.624	11756.87
882.941	11674.38
883.259	11637.55
883.577	11664.21
883.894	11577.89
884.212	11593.25
884.529	11508.28
884.846	11509.87
885.164	11475.97
885.481	11390.1
885.798	11481.62
886.115	11409.98
886.432	11381.51
886.75	11352.58
887.067	11431.68
887.383	11274.84
887.7	11365.92
888.017	11248.18
888.334	11243.43
888.651	11179.25
888.967	11165.92
889.284	11209.99
889.6	11136.09
889.917	11102.19
890.233	11133.15
890.55	11050.22
890.866	10976.32
891.182	10928.19
891.498	10902.88
891.815	10905.36
892.131	10838.92
892.447	10855.19
892.763	10807.29
893.079	10746.05
893.395	10763.67
893.71	10754.86
894.026	10654.3
894.342	10678.25
894.657	10633.28
894.973	10556.67
895.289	10515.32
895.604	10526.84
895.92	10421.08
896.235	10447.75
896.55	10441.19
896.865	10373.63
897.181	10328.88
897.496	10299.96
897.811	10263.57
898.126	10164.14
898.441	10281.88
898.756	10180.64
899.071	10215.21
899.386	10188.55
899.7	10093.41
900.015	10011.83
900.33	9975.67
900.644	9941.55
900.959	9963.69
901.273	9885.5
901.588	9861.1
901.902	9837.59
902.216	9735.22
902.531	9750.59
902.845	9697.94
903.159	9689.12
903.473	9622.68
903.787	9570.93
904.101	9569.58
904.415	9574.78
904.729	9522.35
905.042	9422.01
905.356	9433.09
905.67	9488.9
905.984	9377.04
906.297	9478.51
906.611	9316.93
906.924	9386.98
907.237	9320.09
907.551	9269.93
907.864	9221.34
908.177	9149.93
908.491	9164.17
908.804	9121.68
909.117	9026.54
909.43	8994.9
909.743	8972.53
910.056	8958.52
910.368	8926.88
910.681	8884.4
910.994	8903.16
911.307	8791.75
911.619	8736.38
911.932	8694.8
912.244	8673.56
912.557	8645.31
912.869	8597.18
913.181	8542.04
913.494	8523.05
913.806	8473.56
914.118	8415.94
914.43	8438.31
914.742	8427.69
915.054	8375.26
915.366	8372.32
915.678	8275.83
915.99	8306.79
916.302	8241.03
916.613	8202.38
916.925	8192.21
917.236	8160.12
917.548	8114.7
917.859	8095.04
918.171	8036.96
918.482	7996.51
918.794	7976.4
919.105	7954.93
919.416	7845.1
919.727	7885.1
920.038	7875.61
920.349	7817.99
920.66	7700.93
920.971	7764.43
921.282	7772.79
921.593	7680.59
921.903	7674.94
922.214	7631.1
922.525	7580.03
922.835	7568.5
923.146	7499.8
923.456	7487.15
923.767	7477.66
924.077	7372.12
924.387	7396.53
924.697	7375.74
925.008	7292.8
925.318	7314.95
925.628	7249.87
925.938	7273.82
926.248	7170.55
926.558	7155.63
926.867	7135.52
927.177	7105.01
927.487	7075.86
927.796	7054.84
928.106	7041.28
928.416	6976.65
928.725	6996.54
929.034	6978.23
929.344	6992.7
929.653	6938.46
929.962	6794.74
930.271	6839.93
930.581	6813.95
930.89	6805.13
931.199	6714.74
931.508	6791.12
931.817	6726.49
932.125	6735.08
932.434	6663.67
932.743	6562.65
933.051	6584.12
933.36	6535.76
933.669	6559.94
933.977	6460.96
934.286	6504.12
934.594	6449.43
934.902	6385.03
935.21	6429.1
935.519	6366.05
935.827	6359.95
936.135	6291.7
936.443	6246.95
936.751	6253.51
937.059	6211.48
937.367	6195.43
937.674	6238.59
937.982	6213.28
938.29	6181.42
938.597	6139.61
938.905	6072.72
939.213	6090.8
939.52	6011.03
939.827	6008.09
940.135	5971.93
940.442	5991.82
940.749	5935.55
941.056	5967.87
941.363	5874.08
941.67	5832.28
941.977	5856.23
942.284	5815.78
942.591	5812.62
942.898	5773.97
943.205	5777.36
943.511	5721.77
943.818	5667.99
944.125	5613.07
944.431	5618.95
944.738	5564.71
945.044	5530.82
945.35	5547.99
945.657	5514.09
945.963	5524.71
946.269	5464.6
946.575	5413.76
946.881	5389.8
947.187	5462.34
947.493	5417.6
947.799	5408.78
948.105	5377.37
948.41	5320.88
948.716	5302.12
949.022	5244.72
949.327	5288.79
949.633	5202.24
949.938	5225.29
950.244	5231.61
950.549	5150.03
950.854	5125.18
951.16	5141.45
951.465	5118.85
951.77	5061.67
952.075	5048.12
952.38	5043.14
952.685	5025.74
952.99	4973.32
953.294	5039.98
953.599	4934.9
953.904	4911.17
954.209	4911.4
954.513	4870.49
954.818	4878.63
955.122	4866.88
955.426	4855.58
955.731	4825.07
956.035	4825.3
956.339	4747.56
956.643	4748.01
956.948	4736.94
957.252	4694
957.556	4740.55
957.86	4683.61
958.163	4663.49
958.467	4658.3
958.771	4604.06
959.075	4569.26
959.378	4554.34
959.682	4548.92
959.985	4500.79
960.289	4505.76
960.592	4520.9
960.896	4442.71
961.199	4443.61
961.502	4432.99
961.805	4366.78
962.108	4347.12
962.411	4347.34
962.714	4370.17
963.017	4333.11
963.32	4366.33
963.623	4291.3
963.926	4282.71
964.228	4292.66
964.531	4279.77
964.833	4256.95
965.136	4220.12
965.438	4197.52
965.741	4181.92
966.043	4176.27
966.345	4101.7
966.648	4103.73
966.95	4124.52
967.252	4122.04
967.554	4079.78
967.856	4048.59
968.158	4047.24
968.46	4040.23
968.761	4037.75
969.063	4049.95
969.365	4010.18
969.666	3951.65
969.968	3899.22
970.269	3978.99
970.571	3917.52
970.872	3891.08
971.174	3871.88
971.475	3821.48
971.776	3825.78
972.077	3826.45
972.378	3848.15
972.679	3800.69
972.98	3792.56
973.281	3794.82
973.582	3765.66
973.883	3748.71
974.183	3717.08
974.484	3699.45
974.785	3703.74
975.085	3680.69
975.386	3663.75
975.686	3668.72
975.986	3655.84
976.287	3631.88
976.587	3593.01
976.887	3628.04
977.187	3583.07
977.487	3568.38
977.787	3550.75
978.087	3517.99
978.387	3517.53
978.687	3502.62
978.987	3470.76
979.286	3437.08
979.586	3419.23
979.885	3424.66
980.185	3398.67
980.484	3369.97
980.784	3419.68
981.083	3364.77
981.382	3313.7
981.682	3313.25
981.981	3313.02
982.28	3320.48
982.579	3313.02
982.878	3260.37
983.177	3268.05
983.475	3226.92
983.774	3214.04
984.073	3212.91
984.372	3177.88
984.67	3180.59
984.969	3158.22
985.267	3181.27
985.566	3108.96
985.864	3091.56
986.162	3138.34
986.461	3103.31
986.759	3083.87
987.057	3074.83
987.355	3006.14
987.653	3068.96
987.951	2995.51
988.249	3016.76
988.547	3023.99
988.844	2996.64
989.142	2969.75
989.44	2969.75
989.737	2932.92
990.035	2971.11
990.332	2937.66
990.63	2889.98
990.927	2917.78
991.224	2899.47
991.521	2885.91
991.819	2863.54
992.116	2863.54
992.413	2786.71
992.71	2835.29
993.006	2785.8
993.303	2792.36
993.6	2811.56
993.897	2788.29
994.193	2758.01
994.49	2765.01
994.787	2724.79
995.083	2708.06
995.379	2692.7
995.676	2692.47
995.972	2689.76
996.268	2683.43
996.565	2599.37
996.861	2595.3
997.157	2610.21
997.453	2628.29
997.749	2604.56
998.044	2582.19
998.34	2558.24
998.636	2572.02
998.932	2536.77
999.227	2519.59
999.523	2521.63
999.818	2507.39
1000.114	2522.76
1000.409	2487.51
1000.704	2472.36
1001	2459.71
1001.295	2427.39
1001.59	2439.14
1001.885	2400.5
1002.18	2405.25
1002.475	2414.29
1002.77	2405.7
1003.065	2343.55
1003.359	2357.11
1003.654	2370.67
1003.949	2339.94
1004.243	2315.31
1004.538	2273.95
1004.832	2304.69
1005.127	2288.87
1005.421	2303.1
1005.715	2254.29
1006.009	2253.39
1006.304	2236.89
1006.598	2210.22
1006.892	2239.38
1007.186	2189.21
1007.48	2204.12
1007.773	2160.96
1008.067	2157.12
1008.361	2161.41
1008.655	2115.76
1008.948	2123.9
1009.242	2083.45
1009.535	2082.09
1009.829	2073.05
1010.122	2075.31
1010.415	2036.67
1010.708	2013.85
1011.001	2021.75
1011.295	2031.25
1011.588	2009.78
1011.881	1993.51
1012.173	1999.38
1012.466	1988.54
1012.759	1953.73
1013.052	1960.06
1013.344	1975.2
1013.637	1945.6
1013.93	1923
1014.222	1909.89
1014.514	1908.31
1014.807	1891.81
1015.099	1886.62
1015.391	1880.06
1015.683	1872.38
1015.976	1847.52
1016.268	1813.62
1016.56	1806.62
1016.851	1801.42
1017.143	1794.87
1017.435	1789.22
1017.727	1793.06
1018.018	1754.64
1018.31	1764.81
1018.602	1727.75
1018.893	1732.5
1019.185	1715.32
1019.476	1713.97
1019.767	1706.51
1020.058	1666.51
1020.35	1652.95
1020.641	1649.56
1020.932	1654.53
1021.223	1646.62
1021.514	1639.62
1021.804	1623.8
1022.095	1577.47
1022.386	1564.59
1022.677	1591.03
1022.967	1575.89
1023.258	1593.29
1023.548	1554.65
1023.839	1542.9
1024.129	1562.33
1024.419	1539.06
1024.709	1529.11
1025	1484.14
1025.29	1509.68
1025.58	1489.11
1025.87	1456.57
1026.16	1474.65
1026.449	1456.35
1026.739	1440.08
1027.029	1412.05
1027.319	1418.15
1027.608	1439.17
1027.898	1439.62
1028.187	1424.71
1028.477	1417.02
1028.766	1408.44
1029.055	1361.66
1029.344	1377.93
1029.634	1358.5
1029.923	1358.5
1030.212	1357.37
1030.501	1331.38
1030.79	1316.46
1031.078	1310.59
1031.367	1307.2
1031.656	1300.42
1031.945	1305.62
1032.233	1296.35
1032.522	1271.72
1032.81	1264.03
1033.099	1255.45
1033.387	1242.34
1033.675	1224.71
1033.963	1251.15
1034.251	1239.85
1034.54	1199.86
1034.828	1216.8
1035.116	1219.97
1035.403	1208.89
1035.691	1185.84
1035.979	1185.39
1036.267	1173.87
1036.554	1189.01
1036.842	1176.13
1037.129	1139.52
1037.417	1137.03
1037.704	1139.74
1037.992	1146.52
1038.279	1133.64
1038.566	1124.6
1038.853	1124.6
1039.14	1124.6
