Data from 5405_FLMS001491_004.txt Node
Date: Thu Apr 19 16:38:16 BST 2018
User: hsy
Spectrometer: FLMS00149
Trigger mode: 0
Integration Time (sec): 1.000000E-2
Scans to average: 10
Electric dark correction enabled: true
Nonlinearity correction enabled: false
Boxcar width: 0
XAxis mode: Wavelengths
Number of Pixels in Spectrum: 2048
>>>>>Begin Spectral Data<<<<<
341.393	-9.86
341.776	-9.86
342.16	-9.86
342.543	-60.25
342.927	-55.51
343.31	-79.91
343.693	-70.87
344.077	-64.77
344.46	-59.57
344.843	-55.06
345.226	-46.24
345.61	-33.36
345.993	-27.26
346.376	-27.26
346.759	-0.59
347.142	47.54
347.525	54.77
347.908	64.94
348.291	85.51
348.674	96.81
349.057	115.34
349.44	100.2
349.823	157.14
350.206	168.89
350.588	243.24
350.971	235.78
351.354	254.54
351.737	257.93
352.119	278.72
352.502	269.23
352.884	305.61
353.267	293.86
353.65	307.42
354.032	327.76
354.414	329.79
354.797	346.29
355.179	340.64
355.562	356.46
355.944	353.75
356.326	374.31
356.709	353.97
357.091	351.71
357.473	374.54
357.855	371.37
358.238	379.06
358.62	371.83
359.002	374.99
359.384	379.28
359.766	359.62
360.148	340.64
360.53	378.38
360.912	368.66
361.294	372.28
361.676	372.28
362.057	367.76
362.439	368.89
362.821	365.5
363.203	354.88
363.584	362.34
363.966	385.61
364.348	343.35
364.729	356.46
365.111	372.73
365.493	377.7
365.874	337.03
366.256	374.99
366.637	363.24
367.019	353.52
367.4	354.43
367.781	341.54
368.163	351.71
368.544	344.48
368.925	365.72
369.306	353.07
369.688	361.66
370.069	351.94
370.45	368.44
370.831	367.31
371.212	383.35
371.593	361.88
371.974	352.84
372.355	361.43
372.736	365.05
373.117	352.62
373.498	367.76
373.879	352.62
374.26	363.01
374.641	364.82
375.021	350.36
375.402	361.88
375.783	395.78
376.163	374.76
376.544	382.45
376.925	391.03
377.305	410.7
377.686	388.32
378.066	405.95
378.447	393.97
378.827	380.64
379.208	409.34
379.588	396.23
379.968	379.96
380.349	403.24
380.729	433.29
381.109	405.5
381.489	419.73
381.87	419.06
382.25	426.51
382.63	420.41
383.01	407.08
383.39	406.4
383.77	426.51
384.15	428.77
384.53	432.16
384.91	442.78
385.29	449.11
385.67	440.07
386.049	462.45
386.429	464.25
386.809	444.82
387.189	442.56
387.568	446.4
387.948	457.47
388.328	467.64
388.707	481.2
389.087	461.99
389.466	446.4
389.846	494.76
390.225	462.22
390.605	479.85
390.984	480.3
391.363	476.23
391.743	470.81
392.122	498.83
392.501	498.6
392.881	499.05
393.26	490.47
393.639	518.94
394.018	488.43
394.397	515.55
394.776	530.92
395.155	500.64
395.534	544.25
395.913	505.61
396.292	523.46
396.671	513.74
397.05	522.56
397.429	515.33
397.808	519.39
398.186	543.35
398.565	544.93
398.944	566.85
399.323	550.58
399.701	548.77
400.08	576.34
400.458	563.23
400.837	559.84
401.215	577.47
401.594	580.63
401.972	599.39
402.351	584.7
402.729	577.47
403.107	592.84
403.486	589
403.864	584.25
404.242	603.91
404.62	623.12
404.999	625.38
405.377	633.97
405.755	633.29
406.133	644.36
406.511	649.56
406.889	638.94
407.267	644.59
407.645	671.25
408.023	680.07
408.401	659.05
408.779	718.71
409.156	704.47
409.534	690.46
409.912	702.21
410.29	713.51
410.667	705.15
411.045	729.11
411.422	723.46
411.8	747.41
412.178	746.73
412.555	724.36
412.933	780.4
413.31	783.34
413.687	778.6
414.065	772.27
414.442	796.9
414.819	821.98
415.197	826.5
415.574	840.97
415.951	828.54
416.328	848.88
416.705	845.71
417.082	872.38
417.46	870.57
417.837	882.55
418.214	891.13
418.591	900.4
418.967	867.63
419.344	889.78
419.721	904.47
420.098	913.28
420.475	939.72
420.852	918.93
421.228	935.2
421.605	941.98
421.982	952.38
422.358	964.58
422.735	972.26
423.111	1000.28
423.488	985.37
423.864	1024.01
424.241	1026.27
424.617	1051.13
424.994	1043
425.37	1043.67
425.746	1045.48
426.123	1053.84
426.499	1052.03
426.875	1078.47
427.251	1114.63
427.627	1107.85
428.003	1131.35
428.379	1128.19
428.756	1127.51
429.132	1151.24
429.507	1151.92
429.883	1189.21
430.259	1210.45
430.635	1227.62
431.011	1193.27
431.387	1247.06
431.763	1272.37
432.138	1273.95
432.514	1306.94
432.89	1275.76
433.265	1313.04
433.641	1343.55
434.016	1332.25
434.392	1370.9
434.767	1417.67
435.143	1362.31
435.518	1410.9
435.894	1424.45
436.269	1441.85
436.644	1462.65
437.02	1452.93
437.395	1491.12
437.77	1489.99
438.145	1517.56
438.52	1536.77
438.895	1504.45
439.271	1564.34
439.646	1564.34
440.021	1579.7
440.395	1629.19
440.77	1574.51
441.145	1634.17
441.52	1634.17
441.895	1665.13
442.27	1640.27
442.645	1653.83
443.019	1680.49
443.394	1687.05
443.769	1701.51
444.143	1702.19
444.518	1699.48
444.892	1690.66
445.267	1733.37
445.641	1731.11
446.016	1767.5
446.39	1746.48
446.764	1798.91
447.139	1782.64
447.513	1799.13
447.887	1800.26
448.262	1792.35
448.636	1811.79
449.01	1846.59
449.384	1840.26
449.758	1846.82
450.132	1888.62
450.506	1878.68
450.88	1885.46
451.254	1901.96
451.628	1946.02
452.002	1954.61
452.376	1958.9
452.75	1997.09
453.123	1997.77
453.497	2043.87
453.871	2065.12
454.244	2074.61
454.618	2107.15
454.992	2136.98
455.365	2129.07
455.739	2221.27
456.112	2220.59
456.486	2248.39
456.859	2257.65
457.232	2300.82
457.606	2360.25
457.979	2296.75
458.352	2393.69
458.725	2411.77
459.099	2430.08
459.472	2418.78
459.845	2474.14
460.218	2480.47
460.591	2532.45
460.964	2554.59
461.337	2566.12
461.71	2625.1
462.083	2672.33
462.456	2679.79
462.829	2644.08
463.201	2689.73
463.574	2687.7
463.947	2722.05
464.32	2797.75
464.692	2822.61
465.065	2840.91
465.438	2846.34
465.81	2931.31
466.183	2921.36
466.555	2960.68
466.928	2996.16
467.3	2998.42
467.672	3031.19
468.045	3098.76
468.417	3084.98
468.789	3155.93
469.161	3182.37
469.534	3208.81
469.906	3300.79
470.278	3302.37
470.65	3348.47
471.022	3389.37
471.394	3438.41
471.766	3439.77
472.138	3511.18
472.51	3574.23
472.882	3607
473.253	3681.34
473.625	3689.25
473.997	3753.88
474.369	3784.84
474.74	3872.53
475.112	3926.08
475.484	3965.4
475.855	4033.43
476.227	4060.54
476.598	4154.78
476.97	4195.23
477.341	4244.94
477.713	4352.96
478.084	4305.73
478.455	4467.09
478.827	4522
479.198	4625.05
479.569	4664.37
479.94	4731.26
480.311	4811.03
480.682	4930.8
481.053	4973.51
481.424	5041.99
481.795	5169.44
482.166	5239.72
482.537	5270.91
482.908	5307.74
483.279	5481.97
483.65	5539.15
484.021	5617.11
484.391	5690.1
484.762	5726.49
485.133	5828.18
485.503	5895.97
485.874	6038.12
486.244	6042.19
486.615	6203.09
486.985	6261.16
487.356	6406.02
487.726	6434.04
488.097	6584.77
488.467	6573.7
488.837	6744.54
489.207	6767.36
489.578	6908.38
489.948	6949.96
490.318	7075.6
490.688	7061.82
491.058	7234.7
491.428	7290.74
491.798	7370.06
492.168	7473.56
492.538	7556.72
492.908	7702.26
493.278	7703.39
493.648	7812.08
494.017	7897.5
494.387	7945.41
494.757	8039.87
495.126	8124.39
495.496	8229.47
495.866	8252.98
496.235	8378.17
496.605	8430.15
496.974	8447.77
497.344	8484.38
497.713	8607.99
498.082	8701.55
498.452	8751.04
498.821	8796.46
499.19	8861.77
499.559	8911.49
499.928	8970.24
500.298	9017.93
500.667	9143.12
501.036	9102.67
501.405	9144.48
501.774	9202.55
502.143	9311.93
502.512	9327.98
502.88	9468.76
503.249	9452.94
503.618	9511.93
503.987	9553.05
504.356	9610.45
504.724	9738.13
505.093	9795.53
505.462	9812.26
505.83	9820.17
506.199	9879.37
506.567	10019.26
506.936	10010.22
507.304	10117.11
507.672	10126.82
508.041	10274.84
508.409	10313.71
508.777	10409.98
509.145	10516.42
509.514	10497.89
509.882	10555.06
510.25	10588.28
510.618	10741.5
510.986	10710.31
511.354	10788.5
511.722	10880.7
512.09	11013.35
512.458	10971.32
512.826	11138.1
513.193	11129.51
513.561	11199.56
513.929	11303.97
514.297	11393.46
514.664	11536.5
515.032	11543.96
515.4	11592.1
515.767	11686.11
516.135	11739.66
516.502	11742.15
516.869	11911.41
517.237	12028.92
517.604	11909.15
517.972	12136.71
518.339	12190.05
518.706	12302.13
519.073	12281.57
519.44	12361.34
519.808	12549.36
520.175	12573.54
520.542	12742.57
520.909	12822.57
521.276	12963.81
521.643	13076.35
522.009	13163.13
522.376	13178.95
522.743	13247.42
523.11	13406.29
523.477	13569.67
523.843	13646.73
524.21	13786.84
524.577	13903.45
524.943	14011.69
525.31	14062.09
525.676	14179.37
526.043	14347.05
526.409	14360.16
526.776	14551.79
527.142	14581.62
527.508	14698.91
527.874	14790.66
528.241	14970.99
528.607	15074.72
528.973	15065.23
529.339	15187.26
529.705	15335.5
530.071	15462.05
530.437	15629.05
530.803	15672.22
531.169	15881.7
531.535	15815.94
531.901	15891.87
532.267	15922.38
532.632	16204.18
532.998	16158.53
533.364	16228.36
533.73	16268.36
534.095	16469.71
534.461	16477.62
534.826	16583.15
535.192	16571.4
535.557	16810.72
535.923	16860.88
536.288	16754.67
536.653	16906.98
537.019	16896.14
537.384	16959.41
537.749	17069.01
538.114	17196.47
538.479	17170.93
538.845	17299.52
539.21	17300.65
539.575	17373.41
539.94	17398.5
540.305	17420.19
540.67	17512.39
541.034	17610.02
541.399	17597.36
541.764	17685.95
542.129	17673.52
542.494	17724.14
542.858	17831.25
543.223	17806.62
543.587	17990.12
543.952	17814.08
544.316	17891.82
544.681	17907.41
545.045	18100.85
545.41	18082.32
545.774	18110.57
546.138	18173.39
546.503	18236.89
546.867	18223.79
547.231	18370.9
547.595	18473.72
547.959	18492.25
548.324	18440.05
548.688	18521.86
549.052	18556.88
549.416	18576.77
549.779	18609.31
550.143	18677.33
550.507	18832.81
550.871	18771.79
551.235	18842.3
551.599	19019.47
551.962	18949.19
552.326	19003.65
552.689	19073.93
553.053	19020.83
553.417	19243.65
553.78	19357.54
554.143	19326.36
554.507	19407.03
554.87	19481.38
555.234	19654.71
555.597	19571.55
555.96	19637.99
556.323	19770.86
556.686	19758.44
557.05	20042.95
557.413	19987.13
557.776	20073.91
558.139	20175.15
558.502	20297.63
558.865	20338.31
559.228	20569.04
559.59	20540.11
559.953	20583.27
560.316	20908.01
560.679	20783.49
561.041	20889.25
561.404	21021.9
561.767	21191.62
562.129	21211.28
562.492	21460.99
562.854	21458.05
563.217	21475.9
563.579	21690.81
563.941	21893.52
564.304	22041.99
564.666	22221.65
565.028	22321.31
565.39	22398.37
565.753	22597.91
566.115	22758.58
566.477	22919.71
566.839	22973.94
567.201	23348.4
567.563	23338
567.925	23610.76
568.287	23659.12
568.648	23711.78
569.01	24004.88
569.372	24214.59
569.734	24345.66
570.095	24539.33
570.457	24683.96
570.819	24726.89
571.18	24927.11
571.542	25303.6
571.903	25334.33
572.265	25487.1
572.626	25730.26
572.987	25698.62
573.349	26076.91
573.71	26132.5
574.071	26383.35
574.432	26553.28
574.794	26911.47
575.155	26984.69
575.516	26964.12
575.877	27057.45
576.238	27207.28
576.599	27421.74
576.96	27519.36
577.32	27541.51
577.681	27740.6
578.042	27932.23
578.403	28019.01
578.763	28082.28
579.124	28193.24
579.485	28447.7
579.845	28482.95
580.206	28428.26
580.566	28574.7
580.927	28628.03
581.287	28839.55
581.648	28624.87
582.008	29003.16
582.368	28976.95
582.728	29019.66
583.089	29008.36
583.449	29079.55
583.809	29122.93
584.169	29214.91
584.529	29106.89
584.889	29359.31
585.249	29304.4
585.609	28978.98
585.969	29290.39
586.329	29159.77
586.688	29353.89
587.048	29403.83
587.408	29330.16
587.768	29389.37
588.127	29316.83
588.487	29382.81
588.846	29474.11
589.206	29451.06
589.565	29469.14
589.925	29485.86
590.284	29410.38
590.643	29428.24
591.003	29496.94
591.362	29810.83
591.721	29562.92
592.08	29654.9
592.44	29773.99
592.799	29556.37
593.158	29579.42
593.517	29518.86
593.876	29676.82
594.235	29571.28
594.593	29678.17
594.952	29725.4
595.311	29660.32
595.67	29681.34
596.029	29933.53
596.387	29907.77
596.746	29944.83
597.104	29849.24
597.463	29758.85
597.822	29966.3
598.18	29908
598.538	29829.13
598.897	30025.28
599.255	29870.03
599.613	30274.99
599.972	29892.41
600.33	30109.35
600.688	30032.06
601.046	30091.04
601.404	30397.7
601.762	30141.89
602.12	30275.45
602.478	30398.61
602.836	30475.44
603.194	30280.42
603.552	30351.38
603.91	30282.45
604.268	30408.55
604.625	30422.79
604.983	30509.34
605.341	30341.66
605.698	30633.18
606.056	30676.79
606.413	30534.65
606.771	30812.61
607.128	30735.55
607.485	30740.75
607.843	30653.29
608.2	30834.3
608.557	30959.5
608.914	30916.56
609.272	31050.57
609.629	31107.52
609.986	31238.13
610.343	31099.38
610.7	31371.92
611.057	31301.41
611.414	31128.98
611.771	31371.92
612.127	31427.28
612.484	31486.71
612.841	31573.49
613.198	31431.57
613.554	31467.05
613.911	31701.62
614.267	31567.16
614.624	31694.62
614.98	31685.13
615.337	31992.92
615.693	31816.42
616.05	31760.38
616.406	31981.16
616.762	31893.71
617.118	31891.45
617.475	31848.51
617.831	32074.5
618.187	31998.34
618.543	32090.54
618.899	32349.06
619.255	32166.24
619.611	32244.21
619.967	32328.5
620.323	32475.84
620.678	32339.57
621.034	32318.11
621.39	32288.28
621.746	32365.11
622.101	32601.71
622.457	32242.63
622.812	32500.25
623.168	32527.14
623.523	32495.28
623.879	32601.49
624.234	32354.94
624.589	32580.02
624.945	32608.04
625.3	32702.28
625.655	32630.19
626.01	32583.86
626.365	32548.16
626.72	32548.61
627.075	32487.59
627.43	32498.21
627.785	32507.03
628.14	32505.44
628.495	32566.91
628.85	32487.82
629.205	32388.39
629.559	32659.79
629.914	32371.44
630.269	32502.28
630.623	32213.93
630.978	32304.32
631.332	32325.56
631.687	32351.78
632.041	32330.08
632.396	32295.51
632.75	32168.96
633.104	32324.43
633.459	32154.72
633.813	32150.43
634.167	32163.76
634.521	32161.72
634.875	32150.65
635.229	31989.53
635.583	31829.76
635.937	31864.78
636.291	31813.49
636.645	31811.9
636.999	31727.61
637.352	31779.81
637.706	31502.76
638.06	31776.88
638.413	31618.46
638.767	31543.89
639.121	31576.2
639.474	31497.11
639.828	31436.09
640.181	31454.85
640.534	31505.92
640.888	31393.38
641.241	31247.4
641.594	31214.18
641.947	31360.84
642.301	31222.09
642.654	31190.45
643.007	31132.6
643.36	31286.27
643.713	31212.6
644.066	31334.18
644.419	31088.76
644.771	30728.09
645.124	30409.45
645.477	30475.67
645.83	30402
646.182	30374.88
646.535	30322.45
646.888	30425.95
647.24	30359.29
647.593	30611.48
647.945	30338.04
648.298	30322.68
648.65	30029.35
649.002	29829.36
649.355	29802.92
649.707	29610.15
650.059	29498.52
650.411	30000.88
650.763	30353.64
651.115	30782.55
651.467	30612.61
651.819	30644.25
652.171	30569.68
652.523	30393.41
652.875	30547.98
653.227	30385.95
653.578	30487.64
653.93	30509.34
654.282	30428.21
654.633	30302.11
654.985	30521.09
655.337	30461.43
655.688	30438.83
656.039	30434.54
656.391	30179.63
656.742	30421.66
657.094	30442.22
657.445	30396.35
657.796	30375.78
658.147	30391.15
658.498	30378.95
658.849	30411.49
659.2	30286.97
659.551	30207.2
659.902	30530.81
660.253	30278.16
660.604	30394.77
660.955	30360.19
661.306	30557.7
661.656	30333.07
662.007	30541.43
662.358	30429.34
662.708	30484.25
663.059	30403.58
663.409	30336.24
663.76	30414.88
664.11	30476.35
664.461	30436.8
664.811	30437.25
665.161	30326.29
665.511	30263.47
665.862	30342.34
666.212	30401.32
666.562	30307.99
666.912	30379.62
667.262	30291.27
667.612	30259.18
667.962	30188.9
668.312	30331.04
668.662	30498.49
669.011	30476.35
669.361	30393.64
669.711	30448.55
670.06	30311.6
670.41	30215.56
670.76	30185.96
671.109	30291.27
671.459	30192.51
671.808	30133.08
672.157	30281.1
672.507	30129.69
672.856	30016.02
673.205	30060.54
673.554	30153.42
673.904	30079.75
674.253	30353.86
674.602	30116.58
674.951	29757.72
675.3	29550.95
675.649	30063.93
675.998	30060.31
676.346	30089.46
676.695	30135.34
677.044	29901.9
677.393	29867.55
677.741	29994.1
678.09	29891.28
678.438	29828.45
678.787	29889.47
679.135	29928.79
679.484	29676.59
679.832	29772.64
680.181	29730.83
680.529	29814.44
680.877	29692.86
681.225	29691.28
681.573	29752.52
681.922	29535.13
682.27	29452.64
682.618	29487.45
682.966	29377.17
683.314	29507.78
683.661	29258.3
684.009	29257.39
684.357	29219.66
684.705	28998.42
685.053	29110.28
685.4	29017.4
685.748	28975.37
686.095	28938.76
686.443	28721.82
686.79	28734.7
687.138	28931.75
687.485	28763.4
687.832	28601.37
688.18	28579.67
688.527	28419
688.874	28366.12
689.221	28416.06
689.568	28358.66
689.915	28087.48
690.262	28272.56
690.609	28139.68
690.956	28023.75
691.303	27984.43
691.65	27891.33
691.997	27750.54
692.344	27663.54
692.69	27600.04
693.037	27649.75
693.383	27306.03
693.73	27398.46
694.077	27336.32
694.423	27116.89
694.769	27092.93
695.116	26963.44
695.462	26937.23
695.808	26712.6
696.155	26920.96
696.501	26621.08
696.847	26677.35
697.193	26374.31
697.539	26473.74
697.885	26254.08
698.231	26104.94
698.577	26119.62
698.923	26102.22
699.269	25890.7
699.614	25712.18
699.96	25731.39
700.306	25652.07
700.651	25590.37
700.997	25344.05
701.342	25324.16
701.688	25427.44
702.033	25220.44
702.379	25128.01
702.724	25102.25
703.069	25121.46
703.415	24919.43
703.76	24829.26
704.105	24761.69
704.45	24676.5
704.795	24585.88
705.14	24512.43
705.485	24557.41
705.83	24338.43
706.175	24493.68
706.52	24249.39
706.865	24245.77
707.209	24159.68
707.554	24039.9
707.899	24161.26
708.243	24042.62
708.588	23956.07
708.932	23814.83
709.277	23786.35
709.621	23768.73
709.966	23583.19
710.31	23714.04
710.654	23513.14
710.998	23627.71
711.342	23670.42
711.687	23547.94
712.031	23441.5
712.375	23299.59
712.719	23281.05
713.063	23171.68
713.407	23376.87
713.75	23248.51
714.094	23165.35
714.438	23127.61
714.782	23005.13
715.125	22898.24
715.469	23082.87
715.812	22885.36
716.156	22902.76
716.499	22857.11
716.843	22943.21
717.186	22846.72
717.53	22924
717.873	23005.58
718.216	22804.68
718.559	22782.54
718.902	22639.72
719.246	22673.84
719.589	22658.47
719.932	22646.95
720.275	22592.26
720.617	22666.61
720.96	22558.59
721.303	22568.08
721.646	22697.34
721.989	22486.95
722.331	22530.34
722.674	22598.81
723.016	22518.36
723.359	22385.94
723.701	22491.7
724.044	22390.68
724.386	22121.99
724.729	22355.2
725.071	22434.75
725.413	22334.41
725.755	22340.74
726.097	22239.5
726.439	22143.01
726.782	22214.42
727.124	22375.77
727.465	22228.2
727.807	22215.77
728.149	22244.47
728.491	22188.65
728.833	22280.4
729.175	22283.34
729.516	22166.06
729.858	22260.52
730.199	22359.27
730.541	22210.8
730.882	22226.17
731.224	22260.29
731.565	22232.95
731.906	22237.69
732.248	22142.33
732.589	22034.08
732.93	22117.92
733.271	22197.92
733.612	22163.12
733.953	22410.12
734.294	22083.35
734.635	22070.69
734.976	22239.73
735.317	22087.64
735.658	22225.72
735.999	22185.94
736.339	22267.07
736.68	22359.72
737.021	22192.5
737.361	22125.15
737.702	22327.18
738.042	22342.55
738.383	22223.68
738.723	22337.58
739.063	22204.25
739.404	22385.71
739.744	22297.35
740.084	22319.5
740.424	22454.18
740.764	22308.65
741.104	22532.6
741.444	22319.72
741.784	22227.07
742.124	22477.46
742.464	22584.35
742.804	22515.42
743.143	22465.48
743.483	22579.38
743.823	22570.34
744.162	22601.3
744.502	22594.52
744.841	22664.35
745.181	22731.24
745.52	22631.81
745.86	22828.41
746.199	22744.8
746.538	22935.07
746.877	23005.81
747.216	22968.07
747.556	23019.59
747.895	23048.74
748.234	23006.49
748.573	23094.84
748.911	23145.46
749.25	23141.85
749.589	23283.54
749.928	23402.63
750.267	23417.77
750.605	23520.6
750.944	23569.18
751.283	23577.09
751.621	23671.55
751.96	23596.53
752.298	23642.85
752.636	23695.96
752.975	23721.72
753.313	23877.87
753.651	23953.35
753.989	23876.97
754.327	23954.03
754.666	24001.26
755.004	24033.8
755.342	24179.34
755.679	24164.87
756.017	24147.47
756.355	24413
756.693	24253.23
757.031	24384.3
757.368	24304.53
757.706	24602.6
758.044	24445.32
758.381	24528.93
758.719	24617.52
759.056	24742.49
759.394	24657.74
759.731	24578.2
760.068	24675.59
760.405	24697.74
760.743	24661.13
761.08	24763.5
761.417	24693.45
761.754	24701.13
762.091	24756.95
762.428	24712.2
762.765	24733.22
763.102	24847.79
763.438	24809.6
763.775	24648.93
764.112	24820.9
764.449	24819.32
764.785	24705.88
765.122	24700
765.458	24652.54
765.795	24702.49
766.131	24737.51
766.467	24651.87
766.804	24601.92
767.14	24548.59
767.476	24611.87
767.812	24476.05
768.148	24575.03
768.485	24560.57
768.821	24417.3
769.157	24406
769.492	24303.85
769.828	24312.89
770.164	24192.89
770.5	24132.33
770.836	24178.66
771.171	24041.26
771.507	24174.14
771.842	24020.02
772.178	24050.07
772.513	23949.51
772.849	23841.72
773.184	24001.04
773.519	23846.69
773.855	23774.6
774.19	23654.38
774.525	23611.67
774.86	23649.41
775.195	23584.78
775.53	23351.56
775.865	23382.75
776.2	23259.13
776.535	23152.92
776.87	23208.06
777.205	23065.24
777.539	22897.34
777.874	23009.42
778.209	22786.38
778.543	22838.58
778.878	22691.24
779.212	22661.18
779.547	22592.26
779.881	22558.14
780.215	22326.05
780.55	22438.14
780.884	22223.91
781.218	22178.26
781.552	22209.67
781.886	22105.72
782.22	22072.72
782.554	22014.87
782.888	21719.06
783.222	21675.45
783.556	21574.88
783.889	21620.08
784.223	21469.12
784.557	21505.96
784.89	21494.89
785.224	21467.77
785.557	21156.59
785.891	21256.47
786.224	21125.4
786.558	21257.38
786.891	20970.83
787.224	20940.78
787.557	20827.33
787.891	20798.18
788.224	20739.2
788.557	20616.94
788.89	20693.1
789.223	20548.92
789.556	20490.62
789.888	20455.14
790.221	20379.44
790.554	20221.93
790.887	20160.23
791.219	20104.41
791.552	20039.56
791.884	19931.09
792.217	19991.88
792.549	19877.08
792.882	19669.17
793.214	19686.12
793.546	19588.95
793.879	19580.59
794.211	19438.67
794.543	19576.29
794.875	19499.01
795.207	19412.46
795.539	19418.78
795.871	19371.55
796.203	19305.57
796.535	19107.83
796.867	19128.85
797.198	18997.33
797.53	19023.77
797.862	18828.74
798.193	18876.2
798.525	18741.51
798.856	18871.23
799.188	18620.61
799.519	18562.76
799.85	18425.59
800.182	18586.49
800.513	18620.84
800.844	18400.28
801.175	18401.86
801.506	18343.33
801.837	18229.66
802.168	18168.42
802.499	18245.48
802.83	18061.3
803.161	18014.53
803.491	18003.45
803.822	18016.33
804.153	17895.66
804.483	17779.5
804.814	17807.53
805.145	17758.26
805.475	17806.62
805.805	17684.82
806.136	17766.4
806.466	17593.97
806.796	17659.96
807.126	17432.85
807.457	17394.2
807.787	17474.65
808.117	17394.43
808.447	17399.18
808.777	17408.44
809.107	17203.93
809.436	17125.28
809.766	17194.89
810.096	17173.64
810.426	17024.04
810.755	17072.86
811.085	16985.17
811.414	16997.6
811.744	16873.09
812.073	16923.48
812.403	16907.66
812.732	16686.65
813.061	16794.45
813.39	16702.92
813.719	16601.91
814.049	16723.26
814.378	16699.31
814.707	16526.2
815.036	16592.19
815.365	16475.58
815.693	16486.88
816.022	16401.24
816.351	16248.02
816.68	16233.33
817.008	16343.38
817.337	16168.7
817.665	16289.83
817.994	16161.47
818.322	16162.37
818.651	16137.29
818.979	16068.81
819.307	16134.58
819.636	16081.02
819.964	15979.1
820.292	16011.19
820.62	15946.33
820.948	15995.37
821.276	16068.59
821.604	15871.76
821.932	16005.77
822.259	16009.16
822.587	15912.89
822.915	15892.1
823.243	15987.69
823.57	15947.01
823.898	15981.13
824.225	15924.64
824.553	15856.17
824.88	15996.05
825.207	15961.92
825.535	15910.17
825.862	15929.84
826.189	15933.23
826.516	15990.4
826.843	15960.12
827.17	16017.52
827.497	16048.02
827.824	16006.44
828.151	15969.38
828.478	15872.21
828.805	16029.95
829.131	16051.19
829.458	16041.02
829.785	15895.71
830.111	15984.52
830.438	16075.37
830.764	15997.18
831.09	16051.19
831.417	15884.64
831.743	15969.83
832.069	15945.43
832.395	15889.16
832.722	16036.05
833.048	15900.91
833.374	15883.28
833.7	15883.73
834.026	15894.36
834.351	15847.58
834.677	15807.35
835.003	15852.1
835.329	15826.34
835.654	15831.53
835.98	15717.64
836.306	15789.05
836.631	15718.77
836.956	15776.85
837.282	15856.17
837.607	15735.26
837.932	15679.45
838.258	15704.76
838.583	15724.87
838.908	15621.59
839.233	15709.05
839.558	15571.2
839.883	15545.21
840.208	15453.46
840.533	15547.25
840.858	15571.65
841.182	15511.77
841.507	15464.99
841.832	15361.04
842.156	15394.26
842.481	15384.09
842.805	15287.14
843.13	15220.25
843.454	15334.6
843.778	15238.33
844.103	15204.2
844.427	15138.9
844.751	15206.69
845.075	15140.7
845.399	15094.83
845.723	15086.24
846.047	15000.82
846.371	14880.37
846.695	14870.65
847.019	14822.75
847.343	14695.07
847.666	14785.68
847.99	14658.91
848.313	14611.23
848.637	14626.59
848.96	14476.09
849.284	14506.37
849.607	14414.17
849.931	14455.52
850.254	14326.94
850.577	14255.76
850.9	14090.11
851.223	14083.56
851.546	14034.52
851.869	13958.59
852.192	14065.03
852.515	13871.58
852.838	13837.69
853.161	13925.82
853.483	13724.7
853.806	13724.47
854.129	13633.17
854.451	13623.68
854.774	13510.24
855.096	13481.99
855.419	13425.04
855.741	13394.99
856.063	13311.6
856.385	13347.98
856.708	13287.87
857.03	13302.11
857.352	13225.95
857.674	13164.71
857.996	13136.69
858.318	13098.27
858.64	13040.87
858.961	12938.05
859.283	13020.76
859.605	12895.34
859.926	12971.72
860.248	12950.7
860.57	12867.09
860.891	12851.5
861.212	12827.54
861.534	12733.08
861.855	12670.03
862.176	12742.57
862.498	12710.49
862.819	12755.91
863.14	12639.3
863.461	12664.84
863.782	12622.13
864.103	12600.88
864.424	12524.5
864.745	12640.43
865.065	12513.2
865.386	12378.29
865.707	12465.75
866.027	12388.69
866.348	12418.52
866.668	12337.84
866.989	12338.07
867.309	12211.74
867.63	12292.87
867.95	12316.15
868.27	12239.08
868.59	12310.95
868.91	12129.26
869.23	12173.32
869.55	12105.98
869.87	12156.15
870.19	12088.13
870.51	12169.26
870.83	12072.54
871.15	12017.85
871.469	12040.22
871.789	12020.79
872.109	11969.94
872.428	11975.14
872.748	12033.44
873.067	11969.26
873.386	11966.78
873.706	11955.48
874.025	11879.09
874.344	11840.9
874.663	11883.39
874.982	11854.46
875.301	11827.34
875.62	11756.61
875.939	11764.07
876.258	11820.56
876.577	11645.65
876.896	11717.52
877.214	11706.67
877.533	11739.44
877.852	11729.95
878.17	11675.03
878.489	11609.5
878.807	11609.05
879.125	11549.16
879.444	11635.49
879.762	11616.95
880.08	11537.18
880.398	11537.63
880.716	11517.75
881.034	11428.71
881.352	11543.51
881.67	11354.14
881.988	11388.94
882.306	11402.72
882.624	11366.79
882.941	11254.48
883.259	11393.68
883.577	11295.83
883.894	11226.91
884.212	11200.69
884.529	11176.51
884.846	11167.02
885.164	11139.23
885.481	11211.32
885.798	11075.27
886.115	11095.16
886.432	11149.85
886.75	11056.74
887.067	11037.31
887.383	10975.84
887.7	10960.93
888.017	10854.94
888.334	10917.31
888.651	10892.45
888.967	10840.48
889.284	10817.2
889.6	10849.97
889.917	10772
890.233	10820.59
890.55	10750.08
890.866	10690.88
891.182	10633.03
891.498	10638.45
891.815	10540.15
892.131	10544.44
892.447	10527.72
892.763	10502.41
893.079	10491.79
893.395	10503.76
893.71	10394.84
894.026	10400.72
894.342	10386.7
894.657	10357.78
894.973	10327.27
895.289	10307.38
895.604	10231.45
895.92	10206.37
896.235	10180.38
896.55	10165.69
896.865	10113.94
897.181	10112.14
897.496	10086.6
897.811	10045.7
898.126	9993.04
898.441	9945.59
898.756	9905.59
899.071	9837.11
899.386	9950.11
899.7	9775.87
900.015	9784.01
900.33	9711.92
900.644	9738.59
900.959	9726.61
901.273	9662.2
901.588	9617.46
901.902	9615.43
902.216	9572.94
902.531	9507.86
902.845	9443.23
903.159	9440.29
903.473	9393.51
903.787	9418.37
904.101	9268.54
904.415	9392.83
904.729	9339.5
905.042	9199.62
905.356	9215.21
905.67	9205.27
905.984	9197.58
906.297	9147.87
906.611	9113.07
906.924	9032.84
907.237	8969.79
907.551	8995.78
907.864	8925.5
908.177	8908.78
908.491	8895.67
908.804	8794.43
909.117	8814.09
909.43	8688.44
909.743	8690.48
910.056	8635.56
910.368	8632.63
910.681	8668.78
910.994	8638.5
911.307	8570.93
911.619	8483.7
911.932	8523.02
912.244	8365.51
912.557	8446.42
912.869	8397.38
913.181	8375.91
913.494	8296.82
913.806	8188.12
914.118	8217.27
914.43	8183.15
914.742	8235.12
915.054	8186.54
915.366	8136.14
915.678	8091.17
915.99	8087.78
916.302	7967.11
916.613	7981.34
916.925	7991.29
917.236	7909.71
917.548	7896.37
917.859	7957.62
918.171	7810.73
918.482	7729.83
918.794	7852.76
919.105	7712.2
919.416	7647.12
919.727	7664.52
920.038	7668.58
920.349	7582.71
920.66	7530.28
920.971	7509.49
921.282	7557.63
921.593	7404.18
921.903	7389.72
922.214	7418.19
922.525	7346.11
922.835	7333.9
923.146	7305.2
923.456	7275.37
923.767	7244.87
924.077	7222.49
924.387	7250.06
924.697	7163.06
925.008	7107.69
925.318	7075.38
925.628	7081.48
925.938	7053.46
926.248	7017.3
926.558	6975.04
926.867	6984.53
927.177	6902.28
927.487	6907.47
927.796	6916.51
928.106	6853.01
928.416	6848.72
928.725	6796.29
929.034	6735.95
929.344	6763.07
929.653	6760.81
929.962	6703.64
930.271	6616.63
930.581	6627.71
930.89	6617.31
931.199	6545
931.508	6516.07
931.817	6520.14
932.125	6536.64
932.434	6463.87
932.743	6370.54
933.051	6404.66
933.36	6416.41
933.669	6334.16
933.977	6326.47
934.286	6303.42
934.594	6265
934.902	6223.65
935.21	6225.01
935.519	6213.71
935.827	6206.48
936.135	6105.91
936.443	6056.65
936.751	6074.28
937.059	6073.6
937.367	5991.57
937.674	6013.94
937.982	6026.37
938.29	5994.96
938.597	5939.82
938.905	5914.28
939.213	5845.13
939.52	5899.59
939.827	5910.44
940.135	5832.25
940.442	5823.89
940.749	5827.73
941.056	5734.17
941.363	5737.34
941.67	5701.4
941.977	5724.91
942.284	5636.77
942.591	5613.95
942.898	5595.19
943.205	5610.11
943.511	5594.29
943.818	5508.87
944.125	5511.35
944.431	5512.03
944.738	5474.07
945.044	5454.18
945.35	5428.19
945.657	5421.86
945.963	5405.82
946.269	5346.84
946.575	5338.93
946.881	5293.73
947.187	5305.93
947.493	5257.8
947.799	5229.78
948.105	5159.95
948.41	5160.4
948.716	5143.68
949.022	5124.24
949.327	5116.56
949.633	5097.8
949.938	5079.73
950.244	5117.01
950.549	5025.04
950.854	4993.17
951.16	5003.34
951.465	4950.01
951.77	4945.27
952.075	4953.4
952.38	4897.36
952.685	4875.44
952.99	4841.09
953.294	4878.83
953.599	4793.63
953.904	4826.85
954.209	4724.71
954.513	4819.62
954.818	4758.38
955.122	4745.04
955.426	4731.03
955.731	4652.17
956.035	4672.96
956.339	4660.98
956.643	4650.58
956.948	4580.3
957.252	4572.62
957.556	4565.61
957.86	4537.14
958.163	4516.12
958.467	4528.78
958.771	4508.21
959.075	4462.11
959.378	4479.29
959.682	4454.43
959.985	4432.06
960.289	4385.51
960.592	4399.74
960.896	4390.48
961.199	4345.51
961.502	4350.93
961.805	4291.5
962.108	4286.98
962.411	4286.98
962.714	4254.21
963.017	4243.59
963.32	4255.11
963.623	4222.35
963.926	4223.93
964.228	4170.37
964.531	4157.04
964.833	4152.29
965.136	4134.44
965.438	4060.99
965.741	4084.72
966.043	4048.57
966.345	4025.74
966.648	4029.58
966.95	3994.33
967.252	4004.05
967.554	3954.78
967.856	3950.49
968.158	3950.26
968.46	3974.22
968.761	3933.77
969.063	3902.13
969.365	3883.6
969.666	3891.96
969.968	3842.92
970.269	3834.79
970.571	3793.21
970.872	3818.06
971.174	3785.52
971.475	3794.56
971.776	3771.06
972.077	3737.61
972.378	3728.57
972.679	3679.08
972.98	3695.81
973.281	3668.24
973.582	3648.8
973.883	3704.85
974.183	3614.68
974.484	3606.77
974.785	3564.28
975.085	3556.15
975.386	3560.67
975.686	3547.79
975.986	3553.66
976.287	3537.84
976.587	3513.21
976.887	3495.59
977.187	3478.19
977.487	3457.62
977.787	3463.95
978.087	3439.99
978.387	3402.93
978.687	3398.41
978.987	3350.05
979.286	3406.32
979.586	3374.69
979.885	3316.38
980.185	3347.34
980.484	3291.3
980.784	3296.95
981.083	3318.87
981.382	3248.81
981.682	3276.61
981.981	3230.73
982.28	3188.48
982.579	3197.97
982.878	3189.38
983.177	3201.13
983.475	3174.92
983.774	3153
984.073	3138.08
984.372	3088.82
984.67	3105.31
984.969	3096.95
985.267	3096.95
985.566	3055.82
985.864	3026.22
986.162	3028.48
986.461	2986.45
986.759	3013.11
987.057	2967.92
987.355	2944.19
987.653	2967.69
987.951	2935.15
988.249	2946.45
988.547	2953.68
988.844	2872.1
989.142	2907.13
989.44	2869.84
989.737	2889.5
990.035	2866.9
990.332	2835.04
990.63	2814.25
990.927	2820.58
991.224	2806.11
991.521	2828.48
991.819	2813.12
992.116	2774.93
992.413	2764.08
992.71	2798.88
993.006	2731.99
993.303	2716.4
993.6	2723.63
993.897	2717.98
994.193	2692.67
994.49	2689.96
994.787	2646.34
995.083	2642.73
995.379	2623.07
995.676	2660.81
995.972	2588.72
996.268	2608.15
996.565	2574.93
996.861	2591.2
997.157	2541.26
997.453	2578.32
997.749	2537.87
998.044	2514.59
998.34	2520.02
998.636	2504.88
998.932	2489.74
999.227	2462.17
999.523	2459.68
999.818	2440.92
1000.114	2428.27
1000.409	2443.86
1000.704	2381.72
1001	2374.49
1001.295	2407.93
1001.59	2343.3
1001.885	2386.46
1002.18	2363.86
1002.475	2338.78
1002.77	2317.31
1003.065	2301.04
1003.359	2294.04
1003.654	2290.65
1003.949	2279.12
1004.243	2254.04
1004.538	2212
1004.832	2271.66
1005.127	2222.85
1005.421	2178.56
1005.715	2220.59
1006.009	2219.24
1006.304	2189.86
1006.598	2153.7
1006.892	2165
1007.186	2142.4
1007.48	2189.41
1007.773	2106.02
1008.067	2114.83
1008.361	2111.44
1008.655	2087.04
1008.948	2064.21
1009.242	2059.69
1009.535	2044.78
1009.829	2023.99
1010.122	2006.36
1010.415	2014.72
1010.708	1995.29
1011.001	1993.25
1011.295	2003.87
1011.588	1957.1
1011.881	1959.81
1012.173	1930.43
1012.466	1933.59
1012.759	1943.99
1013.052	1907.83
1013.344	1896.53
1013.637	1876.19
1013.93	1857.66
1014.222	1883.65
1014.514	1887.49
1014.807	1867.83
1015.099	1813.82
1015.391	1828.29
1015.683	1854.73
1015.976	1812.69
1016.268	1804.78
1016.56	1782.64
1016.851	1779.7
1017.143	1763.88
1017.435	1728.85
1017.727	1699.93
1018.018	1727.72
1018.31	1724.79
1018.602	1711.9
1018.893	1696.76
1019.185	1674.17
1019.476	1660.61
1019.767	1682.3
1020.058	1648.4
1020.35	1638.01
1020.641	1618.35
1020.932	1620.38
1021.223	1615.18
1021.514	1593.94
1021.804	1614.96
1022.095	1594.62
1022.386	1577.67
1022.677	1550.78
1022.967	1553.72
1023.258	1534.06
1023.548	1523.89
1023.839	1520.95
1024.129	1504.9
1024.419	1489.76
1024.709	1477.56
1025	1487.28
1025.29	1488.63
1025.58	1451.8
1025.87	1466.94
1026.16	1448.18
1026.449	1460.39
1026.739	1450.44
1027.029	1436.66
1027.319	1400.73
1027.608	1390.1
1027.898	1412.48
1028.187	1404.34
1028.477	1356.21
1028.766	1343.33
1029.055	1366.83
1029.344	1361.63
1029.634	1360.73
1029.923	1322.31
1030.212	1300.16
1030.501	1325.47
1030.79	1303.33
1031.078	1285.93
1031.367	1287.73
1031.656	1288.86
1031.945	1266.94
1032.233	1283.21
1032.522	1236.89
1032.81	1234.85
1033.099	1252.71
1033.387	1213.84
1033.675	1229.88
1033.963	1221.07
1034.251	1203.44
1034.54	1169.77
1034.828	1163.44
1035.116	1201.86
1035.403	1171.58
1035.691	1170.22
1035.979	1154.63
1036.267	1152.37
1036.554	1136.33
1036.842	1151.69
1037.129	1142.2
1037.417	1137.46
1037.704	1105.82
1037.992	1120.51
1038.279	1106.5
1038.566	1092.03
1038.853	1092.03
1039.14	1092.03
