Data from 5405_FLMS001491_001.txt Node
Date: Thu Apr 19 16:38:00 BST 2018
User: hsy
Spectrometer: FLMS00149
Trigger mode: 0
Integration Time (sec): 1.000000E-2
Scans to average: 10
Electric dark correction enabled: true
Nonlinearity correction enabled: false
Boxcar width: 0
XAxis mode: Wavelengths
Number of Pixels in Spectrum: 2048
>>>>>Begin Spectral Data<<<<<
341.393	-12.58
341.776	-12.58
342.16	-12.58
342.543	-72.7
342.927	-67.95
343.31	-75.18
343.693	-65.92
344.077	-47.16
344.46	-57.55
344.843	-53.71
345.226	-43.54
345.61	-34.96
345.993	-14.84
346.376	-7.84
346.759	13.63
347.142	32.84
347.525	35.55
347.908	58.6
348.291	70.13
348.674	91.37
349.057	98.6
349.44	147.19
349.823	130.91
350.206	165.04
350.588	217.24
350.971	237.58
351.354	254.75
351.737	276.22
352.119	286.84
352.502	290.01
352.884	304.92
353.267	290.46
353.65	338.82
354.032	326.16
354.414	324.36
354.797	358.25
355.179	350.34
355.562	353.06
355.944	355.09
356.326	354.86
356.709	357.12
357.091	370.68
357.473	380.17
357.855	368.87
358.238	362.55
358.62	365.94
359.002	394.86
359.384	382.21
359.766	367.97
360.148	386.95
360.53	362.77
360.912	381.3
361.294	372.94
361.676	379.95
362.057	359.16
362.439	378.59
362.821	370.91
363.203	374.07
363.584	353.96
363.966	341.3
364.348	364.13
364.729	362.32
365.111	357.35
365.493	364.35
365.874	369.1
366.256	359.16
366.637	359.16
367.019	352.15
367.4	349.89
367.781	369.78
368.163	383.34
368.544	377.01
368.925	376.33
369.306	354.86
369.688	372.72
370.069	370.46
370.45	376.33
370.831	370.68
371.212	361.87
371.593	359.61
371.974	378.37
372.355	356.67
372.736	368.65
373.117	368.42
373.498	367.52
373.879	377.46
374.26	356.9
374.641	357.35
375.021	371.59
375.402	372.94
375.783	389.21
376.163	380.63
376.544	403
376.925	374.07
377.305	386.95
377.686	408.42
378.066	410.91
378.447	394.41
378.827	395.09
379.208	395.54
379.588	390.34
379.968	406.16
380.349	413.39
380.729	401.87
381.109	419.72
381.489	422.88
381.87	396.22
382.25	425.37
382.63	413.17
383.01	419.49
383.39	439.61
383.77	408.2
384.15	424.47
384.53	414.3
384.91	428.08
385.29	451.58
385.67	428.76
386.049	449.55
386.429	446.61
386.809	453.39
387.189	451.13
387.568	473.5
387.948	450.45
388.328	467.4
388.707	470.11
389.087	481.87
389.466	481.64
389.846	468.08
390.225	512.15
390.605	478.25
390.984	506.72
391.363	481.87
391.743	518.93
392.122	499.72
392.501	490.23
392.881	521.41
393.26	511.02
393.639	506.5
394.018	534.07
394.397	534.29
394.776	517.8
395.155	532.94
395.534	532.94
395.913	527.97
396.292	537.46
396.671	540.85
397.05	541.98
397.429	537.91
397.808	550.11
398.186	554.18
398.565	591.02
398.944	568.19
399.323	580.39
399.701	580.62
400.08	583.78
400.458	570.45
400.837	593.95
401.215	593.5
401.594	607.29
401.972	636.21
402.351	622.65
402.729	607.51
403.107	627.62
403.486	649.55
403.864	619.04
404.242	626.95
404.62	635.76
404.999	655.42
405.377	667.85
405.755	620.85
406.133	654.52
406.511	664.69
406.889	650
407.267	675.99
407.645	681.41
408.023	682.76
408.401	681.18
408.779	701.3
409.156	716.89
409.534	729.09
409.912	735.87
410.29	760.73
410.667	771.58
411.045	763.44
411.422	760.05
411.8	793.27
412.178	767.51
412.555	801.86
412.933	804.57
413.31	833.04
413.687	813.16
414.065	814.29
414.442	851.35
414.819	838.69
415.197	825.36
415.574	874.17
415.951	883.44
416.328	865.13
416.705	898.58
417.082	899.71
417.46	917.56
417.837	910.56
418.214	923.89
418.591	939.03
418.967	901.52
419.344	944.45
419.721	943.32
420.098	948.07
420.475	966.6
420.852	970.89
421.228	960.72
421.605	959.82
421.982	987.39
422.358	1021.51
422.735	1007.95
423.111	1015.64
423.488	1054.05
423.864	1035.98
424.241	1053.83
424.617	1059.7
424.994	1071
425.37	1095.86
425.746	1098.57
426.123	1111.45
426.499	1132.7
426.875	1122.3
427.251	1158.23
427.627	1173.37
428.003	1191.45
428.379	1183.09
428.756	1215.18
429.132	1244.56
429.507	1220.6
429.883	1223.32
430.259	1255.18
430.635	1284.1
431.011	1247.95
431.387	1287.72
431.763	1319.58
432.138	1353.48
432.514	1347.83
432.89	1343.76
433.265	1425.12
433.641	1391.45
434.016	1377.89
434.392	1471.67
434.767	1471.67
435.143	1446.81
435.518	1500.6
435.894	1506.7
436.269	1511.22
436.644	1541.05
437.02	1522.29
437.395	1567.94
437.77	1599.35
438.145	1588.96
438.52	1614.94
438.895	1654.72
439.271	1639.8
439.646	1656.75
440.021	1699.46
440.395	1658.78
440.77	1685.22
441.145	1706.24
441.52	1709.4
441.895	1741.04
442.27	1762.74
442.645	1733.58
443.019	1769.52
443.394	1761.83
443.769	1784.2
444.143	1766.8
444.518	1808.38
444.892	1773.13
445.267	1802.96
445.641	1816.52
446.016	1832.56
446.39	1844.09
446.764	1884.99
447.139	1871.66
447.513	1913.24
447.887	1867.59
448.262	1903.52
448.636	1920.25
449.01	1920.7
449.384	1941.94
449.758	1989.4
450.132	1962.5
450.506	2012.45
450.88	2000.47
451.254	2044.08
451.628	2050.86
452.002	2079.79
452.376	2077.53
452.75	2117.76
453.123	2122.5
453.497	2145.32
453.871	2176.51
454.244	2221.93
454.618	2249.73
454.992	2263.51
455.365	2264.87
455.739	2309.84
456.112	2325.43
456.486	2360.23
456.859	2382.83
457.232	2432.1
457.606	2455.37
457.979	2438.65
458.352	2521.59
458.725	2538.99
459.099	2597.97
459.472	2596.61
459.845	2650.62
460.218	2628.25
460.591	2672.77
460.964	2726.55
461.337	2698.3
461.71	2796.61
462.083	2806.1
462.456	2805.19
462.829	2835.93
463.201	2892.65
463.574	2872.54
463.947	2939.43
464.32	2979.2
464.692	3006.77
465.065	3005.19
465.438	3040.22
465.81	3047.22
466.183	3126.77
466.555	3130.16
466.928	3175.81
467.3	3212.19
467.672	3243.6
468.045	3320.89
468.417	3295.13
468.789	3339.19
469.161	3387.33
469.534	3446.08
469.906	3519.3
470.278	3493.99
470.65	3551.16
471.022	3583.93
471.394	3638.39
471.766	3689.69
472.138	3720.88
472.51	3819.63
472.882	3818.5
473.253	3853.53
473.625	3924.71
473.997	4054.2
474.369	4034.09
474.74	4086.52
475.112	4132.84
475.484	4223.91
475.855	4265.5
476.227	4315.66
476.598	4426.62
476.97	4442.89
477.341	4515.43
477.713	4596.79
478.084	4665.26
478.455	4724.69
478.827	4785.48
479.198	4910.9
479.569	4894.86
479.94	5029.99
480.311	5139.6
480.682	5242.64
481.053	5304.11
481.424	5392.92
481.795	5420.04
482.166	5560.6
482.537	5622.07
482.908	5718.56
483.279	5811.67
483.65	5893.47
484.021	5942.74
484.391	6073.13
484.762	6090.31
485.133	6159.91
485.503	6293.46
485.874	6383.63
486.244	6471.99
486.615	6615.72
486.985	6619.56
487.356	6819.33
487.726	6825.2
488.097	7004.86
488.467	7057.29
488.837	7208.02
489.207	7207.56
489.578	7372.08
489.948	7422.25
490.318	7551.96
490.688	7596.03
491.058	7730.04
491.428	7848.45
491.798	7882.35
492.168	8016.81
492.538	8028.33
492.908	8191.95
493.278	8295.9
493.648	8286.41
494.017	8417.25
494.387	8467.64
494.757	8574.53
495.126	8626.51
495.496	8791.7
495.866	8812.04
496.235	8873.96
496.605	9014.52
496.974	9059.95
497.344	9135.2
497.713	9133.39
498.082	9235.76
498.452	9332.03
498.821	9433.49
499.19	9429.2
499.559	9522.76
499.928	9607.05
500.298	9609.31
500.667	9738.35
501.036	9775.41
501.405	9744.9
501.774	9832.35
502.143	9868.74
502.512	9958
502.88	10139.47
503.249	10047.94
503.618	10233.25
503.987	10193.25
504.356	10249.29
504.724	10284.32
505.093	10369.97
505.462	10372.45
505.83	10511.21
506.199	10616.97
506.567	10716.62
506.936	10723.63
507.304	10856.96
507.672	10825.77
508.041	10947.35
508.409	11036.62
508.777	11091.53
509.145	11161.36
509.514	11177.4
509.882	11277.74
510.25	11400.9
510.618	11459.66
510.986	11536.49
511.354	11578.98
511.722	11708.92
512.09	11809.7
512.458	11716.37
512.826	11868.46
513.193	11918.18
513.561	12076.14
513.929	12098.51
514.297	12186.42
514.664	12229.35
515.032	12356.13
515.4	12461.44
515.767	12473.87
516.135	12649.91
516.502	12551.15
516.869	12843.35
517.237	12877.47
517.604	12759.06
517.972	13034.53
518.339	13128.54
518.706	13180.29
519.073	13233.17
519.44	13298.48
519.808	13441.07
520.175	13436.1
520.542	13614.4
520.909	13745.47
521.276	13795.64
521.643	13942.98
522.009	13994.05
522.376	14153.82
522.743	14252.13
523.11	14385.91
523.477	14571.89
523.843	14604.21
524.21	14774.15
524.577	14983.18
524.943	15005.78
525.31	15036.96
525.676	15277.18
526.043	15324.19
526.409	15449.16
526.776	15652.77
527.142	15724.4
527.508	15749.49
527.874	15884.62
528.241	16030.61
528.607	16099.76
528.973	16363.93
529.339	16363.48
529.705	16544.49
530.071	16653.42
530.437	16720.99
530.803	16875.33
531.169	17011.37
531.535	16975.67
531.901	17028.55
532.267	17134.76
532.632	17342.67
532.998	17341.99
533.364	17398.48
533.73	17544.47
534.095	17756.44
534.461	17765.25
534.826	17831.69
535.192	17974.29
535.557	18084.57
535.923	18031.46
536.288	18065.13
536.653	18254.73
537.019	18235.07
537.384	18323.66
537.749	18301.74
538.114	18471.45
538.479	18427.83
538.845	18587.83
539.21	18565.68
539.575	18618.34
539.94	18699.47
540.305	18828.28
540.67	18783.08
541.034	18939.69
541.399	18820.37
541.764	18993.47
542.129	19069.63
542.494	19167.48
542.858	19164.76
543.223	19114.82
543.587	19293.57
543.952	19242.73
544.316	19252.67
544.681	19364.99
545.045	19464.87
545.41	19442.95
545.774	19456.51
546.138	19610.18
546.503	19586.45
546.867	19642.72
547.231	19841.36
547.595	19866.67
547.959	19860.57
548.324	19943.28
548.688	19966.1
549.052	20061.92
549.416	20025.31
549.779	20066.44
550.143	20127
550.507	20315.24
550.871	20232.08
551.235	20228.92
551.599	20439.99
551.962	20559.53
552.326	20578.74
552.689	20596.82
553.053	20561.79
553.417	20694.44
553.78	20879.52
554.143	20893.98
554.507	21027.77
554.87	21020.31
555.234	21206.74
555.597	21162.23
555.96	21254.43
556.323	21274.09
556.686	21386.85
557.05	21475.66
557.413	21635.21
557.776	21618.71
558.139	21792.27
558.502	21812.38
558.865	21853.06
559.228	22111.58
559.59	22159.71
559.953	22228.64
560.316	22419.14
560.679	22519.48
561.041	22612.13
561.404	22768.06
561.767	22888.06
562.129	22923.08
562.492	23224.77
562.854	23202.17
563.217	23196.07
563.579	23352.22
563.941	23643.06
564.304	23825.21
564.666	24067.01
565.028	24080.79
565.39	24260
565.753	24414.57
566.115	24477.17
566.477	24697.95
566.839	24869.02
567.201	25131.61
567.563	25115.79
567.925	25447.31
568.287	25530.7
568.648	25630.36
569.01	25931.59
569.372	26110.34
569.734	26274.63
570.095	26500.39
570.457	26688.18
570.819	26857.44
571.18	26885.92
571.542	27225.8
571.903	27341.27
572.265	27612.68
572.626	27899.9
572.987	28013.8
573.349	28184.41
573.71	28321.36
574.071	28548.7
574.432	28854.68
574.794	28976.94
575.155	29101.9
575.516	29159.98
575.877	29452.86
576.238	29447.66
576.599	29853.75
576.96	29786.41
577.32	30032.73
577.681	30074.76
578.042	30400.18
578.403	30339.61
578.763	30447.63
579.124	30529.21
579.485	30738.7
579.845	30942.99
580.206	30882.2
580.566	31018.46
580.927	31042.19
581.287	31200.38
581.648	31132.36
582.008	31497.55
582.368	31332.35
582.728	31449.64
583.089	31514.04
583.449	31499.81
583.809	31671.78
584.169	31758.56
584.529	31609.41
584.889	31941.6
585.249	31647.15
585.609	31672.68
585.969	31790.65
586.329	31712.91
586.688	31852.11
587.048	31788.16
587.408	31878.33
587.768	31803.75
588.127	31762.17
588.487	31813.25
588.846	32085.55
589.206	31709.29
589.565	31760.37
589.925	31958.55
590.284	31853.47
590.643	31966.46
591.003	32072.45
591.362	32083.75
591.721	32140.24
592.08	32068.15
592.44	32321.48
592.799	32145.89
593.158	32161.48
593.517	32049.17
593.876	32180.69
594.235	32290.3
594.593	32076.74
594.952	32207.13
595.311	32124.2
595.67	32248.49
596.029	32415.04
596.387	32431.53
596.746	32430.4
597.104	32278.77
597.463	32273.35
597.822	32583.85
598.18	32272.89
598.538	32440.57
598.897	32593.34
599.255	32354.02
599.613	32771.19
599.972	32561.93
600.33	32462.27
600.688	32558.76
601.046	32624.3
601.404	32766.67
601.762	32765.08
602.12	32832.88
602.478	32901.58
602.836	32951.07
603.194	32816.38
603.552	32955.36
603.91	32983.38
604.268	33108.58
604.625	32997.17
604.983	33172.08
605.341	33059.77
605.698	33181.57
606.056	33393.32
606.413	33165.98
606.771	33440.32
607.128	33333.43
607.485	33259.31
607.843	33358.29
608.2	33526.42
608.557	33626.08
608.914	33588.57
609.272	33819.75
609.629	33778.62
609.986	33881.67
610.343	33735.23
610.7	34006.41
611.057	33814.32
611.414	33861.1
611.771	34120.76
612.127	34238.72
612.484	34200.3
612.841	34234.65
613.198	34021.1
613.554	34091.6
613.911	34336.34
614.267	34345.16
614.624	34339.96
614.98	34415.89
615.337	34605.26
615.693	34639.16
616.05	34599.61
616.406	34766.61
616.762	34448.43
617.118	34637.58
617.475	34669.89
617.831	34759.83
618.187	34804.81
618.543	34798.48
618.899	35026.72
619.255	35080.28
619.611	34985.14
619.967	35181.29
620.323	35216.32
620.678	35139.26
621.034	35104.23
621.39	35138.58
621.746	35137.9
622.101	35421.74
622.457	35183.78
622.812	35385.13
623.168	35336.54
623.523	35321.85
623.879	35462.64
624.234	35270.33
624.589	35485.92
624.945	35374.28
625.3	35507.61
625.655	35560.94
626.01	35539.25
626.365	35547.61
626.72	35363.21
627.075	35416.99
627.43	35446.6
627.785	35450.21
628.14	35456.54
628.495	35507.16
628.85	35538.12
629.205	35440.27
629.559	35436.65
629.914	35401.63
630.269	35393.26
630.623	35100.84
630.978	35059.49
631.332	35343.77
631.687	35275.98
632.041	35241.63
632.396	35261.74
632.75	35130.9
633.104	35353.49
633.459	35073.72
633.813	35014.97
634.167	35007.06
634.521	35050.9
634.875	34950.11
635.229	34879.61
635.583	34794.18
635.937	34667.18
636.291	34804.35
636.645	34715.09
636.999	34435.1
637.352	34699.05
637.706	34423.8
638.06	34643.91
638.413	34448.2
638.767	34432.84
639.121	34397.36
639.474	34382.44
639.828	34371.82
640.181	34248.21
640.534	34279.17
640.888	34142.9
641.241	33882.34
641.594	33925.05
641.947	34228.32
642.301	33965.28
642.654	33911.04
643.007	33937.48
643.36	33946.52
643.713	33989.01
644.066	33902
644.419	33744.95
644.771	33372.3
645.124	33024.51
645.477	33135.02
645.83	33019.99
646.182	33024.06
646.535	32981.58
646.888	33019.32
647.24	33057.28
647.593	33147.9
647.945	32989.26
648.298	32898.19
648.65	32710.17
649.002	32409.16
649.355	32310.18
649.707	32291.88
650.059	32306.11
650.411	32647.57
650.763	32850.73
651.115	33498.4
651.467	33213.66
651.819	33268.8
652.171	33161.01
652.523	33022.48
652.875	33210.04
653.227	33004.85
653.578	33283.72
653.93	33150.16
654.282	33012.99
654.633	32998.07
654.985	33036.49
655.337	33107.67
655.688	33025.64
656.039	33100.9
656.391	32898.64
656.742	32975.47
657.094	32955.81
657.445	33143.61
657.796	33135.7
658.147	33036.94
658.498	33037.39
658.849	33063.38
659.2	32926.21
659.551	32900.22
659.902	33002.14
660.253	32846.89
660.604	33055.25
660.955	32834.01
661.306	33132.98
661.656	32945.65
662.007	33042.59
662.358	32962.59
662.708	32980.45
663.059	32962.37
663.409	32752.43
663.76	33035.59
664.11	32976.83
664.461	33065.64
664.811	32981.12
665.161	33047.11
665.511	32852.09
665.862	32978.64
666.212	33077.84
666.562	33101.8
666.912	33014.12
667.262	32940.67
667.612	33049.15
667.962	32965.98
668.312	32837.85
668.662	33069.71
669.011	33020.45
669.361	32993.55
669.711	32926.21
670.06	32869.94
670.41	32818.87
670.76	32895.93
671.109	33058.86
671.459	32918.3
671.808	32934.12
672.157	32958.98
672.507	32818.64
672.856	32715.14
673.205	32792.88
673.554	32852.54
673.904	32731.64
674.253	32932.99
674.602	32763.05
674.951	32286.68
675.3	32210.75
675.649	32788.81
675.998	32664.52
676.346	32742.71
676.695	32795.14
677.044	32543.4
677.393	32652.77
677.741	32521.02
678.09	32464.75
678.438	32396.28
678.787	32517.41
679.135	32459.1
679.484	32237.87
679.832	32384.08
680.181	32199.45
680.529	32294.81
680.877	32243.29
681.225	32152.22
681.573	32345.43
681.922	32116.06
682.27	31978.66
682.618	32045.33
682.966	31886.46
683.314	31889.18
683.661	31771.21
684.009	31641.05
684.357	31692.12
684.705	31529.41
685.053	31723.76
685.4	31414.39
685.748	31450.32
686.095	31282.41
686.443	31114.05
686.79	31243.09
687.138	31206.03
687.485	31145.24
687.832	30956.54
688.18	30960.39
688.527	30796.1
688.874	30715.65
689.221	30866.83
689.568	30604.46
689.915	30556.33
690.262	30503.45
690.609	30468.65
690.956	30344.81
691.303	30286.73
691.65	30188.88
691.997	30020.75
692.344	29904.14
692.69	29884.26
693.037	29701.44
693.383	29591.83
693.73	29762.45
694.077	29498.5
694.423	29469.13
694.769	29371.28
695.116	29190.94
695.462	29076.59
695.808	29136.03
696.155	29146.42
696.501	28922.47
696.847	28966.31
697.193	28595.25
697.539	28737.85
697.885	28468.7
698.231	28401.58
698.577	28296.95
698.923	28363.62
699.269	28163.62
699.614	28126.56
699.96	28005.21
700.306	27831.88
700.651	27817.19
700.997	27708.95
701.342	27598.44
701.688	27581.49
702.033	27315.51
702.379	27494.49
702.724	27412.23
703.069	27270.77
703.415	27005.46
703.76	26998.23
704.105	27073.94
704.45	26904.22
704.795	26874.84
705.14	26933.6
705.485	26745.81
705.83	26527.73
706.175	26717.56
706.52	26582.42
706.865	26335.65
707.209	26497.68
707.554	26227.86
707.899	26368.42
708.243	26177.91
708.588	26089.78
708.932	25901.76
709.277	26043.68
709.621	25941.99
709.966	25741.09
710.31	25792.84
710.654	25757.36
710.998	25758.26
711.342	25705.84
711.687	25428.55
712.031	25508.33
712.375	25322.12
712.719	25400.98
713.063	25272.17
713.407	25409.8
713.75	25288.22
714.094	25305.62
714.438	25119.18
714.782	25073.76
715.125	24955.8
715.469	25156.47
715.812	25010.49
716.156	24984.72
716.499	24894.78
716.843	24898.62
717.186	24772.98
717.53	24977.49
717.873	24874.67
718.216	24753.32
718.559	24693.88
718.902	24618.63
719.246	24631.29
719.589	24624.73
719.932	24497.73
720.275	24551.06
720.617	24581.57
720.96	24627.9
721.303	24648.01
721.646	24608.92
721.989	24384.74
722.331	24568.92
722.674	24551.06
723.016	24511.97
723.359	24335.48
723.701	24393.33
724.044	24280.79
724.386	24247.12
724.729	24371.86
725.071	24297.06
725.413	24304.29
725.755	24211.86
726.097	24088.02
726.439	24079.44
726.782	23991.98
727.124	24269.04
727.465	24178.87
727.807	24171.19
728.149	24187.46
728.491	24176.84
728.833	24285.53
729.175	24101.13
729.516	24014.13
729.858	24037.18
730.199	24263.61
730.541	24107.01
730.882	24150.85
731.224	24136.16
731.565	24046.9
731.906	24059.1
732.248	24160.34
732.589	23973
732.93	24003.06
733.271	24123.96
733.612	23973.68
733.953	24187.91
734.294	23974.58
734.635	23956.95
734.976	24165.54
735.317	23947.46
735.658	24037.86
735.999	24009.38
736.339	23960.34
736.68	24149.72
737.021	23989.72
737.361	23939.33
737.702	24172.09
738.042	24199.66
738.383	24257.51
738.723	24135.71
739.063	23997.86
739.404	24182.71
739.744	24092.09
740.084	24174.35
740.424	24272.2
740.764	24176.61
741.104	24323.05
741.444	24236.04
741.784	24208.7
742.124	24299.77
742.464	24346.1
742.804	24310.62
743.143	24247.34
743.483	24391.75
743.823	24455.02
744.162	24388.58
744.502	24422.93
744.841	24423.38
745.181	24582.02
745.52	24431.97
745.86	24494.12
746.199	24572.53
746.538	24601.01
746.877	24809.36
747.216	24717.16
747.556	24645.75
747.895	24762.58
748.234	24725.52
748.573	24887.33
748.911	24846.65
749.25	24859.76
749.589	24866.76
749.928	25104.5
750.267	25040.32
750.605	25105.17
750.944	25086.64
751.283	25154.66
751.621	25400.98
751.96	25259.75
752.298	25332.06
752.636	25469.01
752.975	25427.42
753.313	25348.56
753.651	25633.07
753.989	25512.39
754.327	25617.02
754.666	25563.47
755.004	25701.77
755.342	25768.43
755.679	25768.43
756.017	25738.15
756.355	25900.18
756.693	25716.68
757.031	26081.19
757.368	26003.91
757.706	26019.73
758.044	26041.42
758.381	25966.39
758.719	26120.29
759.056	26338.36
759.394	26168.2
759.731	26105.15
760.068	26091.14
760.405	26170.46
760.743	26174.3
761.08	26153.73
761.417	26148.31
761.754	26289.77
762.091	26294.29
762.428	26226.95
762.765	26189.44
763.102	26318.02
763.438	26191.47
763.775	26137.24
764.112	26221.75
764.449	26372.48
764.785	26211.36
765.122	26126.84
765.458	26124.36
765.795	26147.86
766.131	26155.77
766.467	26094.07
766.804	25937.92
767.14	25811.37
767.476	25811.6
767.812	25862.67
768.148	25918.26
768.485	25809.11
768.821	25757.81
769.157	25687.53
769.492	25693.18
769.828	25581.54
770.164	25359.18
770.5	25395.11
770.836	25336.35
771.171	25378.39
771.507	25342
771.842	25119.86
772.178	25142.69
772.513	25053.2
772.849	25010.26
773.184	25056.59
773.519	25016.59
773.855	24886.87
774.19	24913.77
774.525	24677.16
774.86	24659.08
775.195	24765.52
775.53	24492.08
775.865	24434.23
776.2	24267.68
776.535	24216.38
776.87	24130.96
777.205	24066.1
777.539	23956.5
777.874	24014.35
778.209	23871.99
778.543	23873.79
778.878	23627.92
779.212	23696.85
779.547	23445.78
779.881	23603.74
780.215	23379.79
780.55	23526.68
780.884	23386.35
781.218	23223.64
781.552	23267.48
781.886	23138.67
782.22	23014.38
782.554	22916.76
782.888	22685.58
783.222	22670.21
783.556	22569.42
783.889	22699.36
784.223	22482.87
784.557	22369.43
784.89	22379.82
785.224	22183.67
785.557	22113.84
785.891	22109.09
786.224	22085.59
786.558	22060.96
786.891	22006.95
787.224	21745.94
787.557	21663.68
787.891	21720.86
788.224	21618.71
788.557	21568.32
788.89	21624.81
789.223	21454.2
789.556	21278.83
789.888	21300.08
790.221	21149.8
790.554	21110.48
790.887	21051.72
791.219	20961.33
791.552	20967.65
791.884	20878.62
792.217	20757.72
792.549	20731.05
792.882	20545.97
793.214	20530.83
793.546	20461.68
793.879	20427.33
794.211	20199.99
794.543	20429.82
794.875	20263.27
795.207	20336.94
795.539	20150.5
795.871	20228.01
796.203	20031.63
796.535	19858.76
796.867	19910.06
797.198	19779.89
797.53	19726.56
797.862	19522.27
798.193	19624.41
798.525	19500.35
798.856	19598.43
799.188	19265.78
799.519	19266.46
799.85	19219.45
800.182	19151.43
800.513	19334.93
800.844	18973.81
801.175	19150.3
801.506	19090.42
801.837	18994.83
802.168	19004.99
802.499	18902.4
802.83	18732.46
803.161	18685.91
803.491	18741.72
803.822	18765.68
804.153	18626.47
804.483	18569.3
804.814	18434.39
805.145	18482.07
805.475	18527.72
805.805	18509.87
806.136	18417.21
806.466	18252.7
806.796	18267.61
807.126	18141.51
807.457	18176.54
807.787	18159.14
808.117	18118.01
808.447	17930.9
808.777	18112.81
809.107	17913.27
809.436	17907.85
809.766	17831.69
810.096	17809.77
810.426	17719.15
810.755	17716.67
811.085	17654.3
811.414	17657.91
811.744	17554.41
812.073	17481.87
812.403	17476.67
812.732	17454.3
813.061	17412.72
813.39	17247.07
813.719	17226.74
814.049	17376.56
814.378	17335.43
814.707	17196.91
815.036	17191.26
815.365	17105.84
815.693	17038.27
816.022	17032.84
816.351	16922.79
816.68	16917.37
817.008	16912.85
817.337	16792.17
817.665	16842.11
817.994	16753.08
818.322	16755.11
818.651	16758.95
818.979	16666.53
819.307	16735.9
819.636	16600.09
819.964	16569.58
820.292	16660.2
820.62	16622.68
820.948	16624.72
821.276	16680.99
821.604	16610.71
821.932	16747.43
822.259	16543.14
822.587	16695
822.915	16558.05
823.243	16692.97
823.57	16525.51
823.898	16607.09
824.225	16532.97
824.553	16497.94
824.88	16548.79
825.207	16712.85
825.535	16455.46
825.862	16527.32
826.189	16484.61
826.516	16667.65
826.843	16628.33
827.17	16709.24
827.497	16699.74
827.824	16666.53
828.151	16698.61
828.478	16540.43
828.805	16675.34
829.131	16559.18
829.458	16607.32
829.785	16415.91
830.111	16628.11
830.438	16675.79
830.764	16611.39
831.09	16608.45
831.417	16547.66
831.743	16665.17
832.069	16619.52
832.395	16561.67
832.722	16547.21
833.048	16596.7
833.374	16578.39
833.7	16547.43
834.026	16554.66
834.351	16490.71
834.677	16599.18
835.003	16499.07
835.329	16469.24
835.654	16424.05
835.98	16275.8
836.306	16413.2
836.631	16266.99
836.956	16376.82
837.282	16434.89
837.607	16289.36
837.932	16290.72
838.258	16332.3
838.583	16291.17
838.908	16211.85
839.233	16312.86
839.558	16154.45
839.883	16084.39
840.208	16040.33
840.533	16141.34
840.858	16092.3
841.182	16111.06
841.507	16152.64
841.832	15943.15
842.156	16030.61
842.481	15916.49
842.805	15900.22
843.13	15843.95
843.454	15874.23
843.778	15862.25
844.103	15742.03
844.427	15705.19
844.751	15683.27
845.075	15660.68
845.399	15613.45
845.723	15518.98
846.047	15561.24
846.371	15464.3
846.695	15432.43
847.019	15434.02
847.343	15278.54
847.666	15269.5
847.99	15199.22
848.313	15088.49
848.637	15082.39
848.96	15089.17
849.284	15021.82
849.607	14889.62
849.931	14879
850.254	14763.3
850.577	14707.93
850.9	14587.48
851.223	14572.34
851.546	14545.45
851.869	14396.75
852.192	14501.61
852.515	14343.87
852.838	14322.86
853.161	14277.44
853.483	14121.06
853.806	14123.09
854.129	14167.83
854.451	14135.52
854.774	14015.52
855.096	13981.62
855.419	13961.74
855.741	13897.33
856.063	13809.43
856.385	13805.36
856.708	13780.5
857.03	13790.22
857.352	13613.05
857.674	13659.15
857.996	13568.3
858.318	13545.03
858.64	13537.79
858.961	13470.22
859.283	13443.78
859.605	13441.75
859.926	13371.02
860.248	13302.55
860.57	13325.6
860.891	13338.25
861.212	13253.06
861.534	13237.46
861.855	13119.95
862.176	13237.91
862.498	13279.72
862.819	13145.94
863.14	13078.82
863.461	13015.55
863.782	13016.68
864.103	12998.6
864.424	13019.84
864.745	13009.9
865.065	12908.88
865.386	12887.87
865.707	12855.78
866.027	12898.04
866.348	12867.75
866.668	12858.49
866.989	12771.26
867.309	12667.76
867.63	12780.07
867.95	12820.07
868.27	12765.84
868.59	12771.94
868.91	12694.2
869.23	12605.84
869.55	12593.19
869.87	12656.91
870.19	12540.53
870.51	12521.78
870.83	12471.83
871.15	12435
871.469	12433.64
871.789	12460.08
872.109	12516.35
872.428	12456.01
872.748	12460.53
873.067	12414.89
873.386	12497.82
873.706	12356.58
874.025	12362.68
874.344	12379.86
874.663	12327.88
874.982	12298.28
875.301	12271.16
875.62	12233.65
875.939	12199.98
876.258	12197.04
876.577	12103.71
876.896	12113.2
877.214	12094.67
877.533	12108.9
877.852	12127.66
878.17	12158.39
878.489	12140.99
878.807	12031.17
879.125	12059.64
879.444	11958.17
879.762	11968.34
880.08	12028.68
880.398	11986.2
880.716	11987.33
881.034	11919.76
881.352	11877.95
881.67	11917.5
881.988	11802.7
882.306	11834.79
882.624	11763.83
882.941	11760.21
883.259	11729.25
883.577	11614.23
883.894	11671.85
884.212	11656.26
884.529	11653.1
884.846	11565.64
885.164	11520.45
885.481	11528.58
885.798	11556.83
886.115	11460.11
886.432	11536.04
886.75	11438.19
887.067	11471.86
887.383	11377.17
887.7	11437.28
888.017	11369.94
888.334	11256.72
888.651	11315.93
888.967	11297.63
889.284	11179.89
889.6	11188.25
889.917	11142.6
890.233	11145.09
890.55	11079.33
890.866	11038.88
891.182	11036.16
891.498	10981.7
891.815	10945.55
892.131	10873.01
892.447	10943.51
892.763	10865.77
893.079	10834.14
893.395	10752.33
893.71	10817.41
894.026	10718.21
894.342	10716.17
894.657	10658.1
894.973	10667.36
895.289	10626.68
895.604	10638.43
895.92	10552.34
896.235	10480.92
896.55	10610.41
896.865	10448.84
897.181	10415.39
897.496	10414.94
897.811	10337.43
898.126	10336.75
898.441	10317.77
898.756	10273.25
899.071	10230.08
899.386	10272.79
899.7	10206.36
900.015	10092.69
900.33	10054.27
900.644	10043.87
900.959	10079.35
901.273	9977.89
901.588	9957.77
901.902	9929.3
902.216	9823.77
902.531	9785.58
902.845	9876.87
903.159	9734.05
903.473	9769.08
903.787	9675.52
904.101	9682.3
904.415	9686.6
904.729	9622.87
905.042	9572.93
905.356	9522.31
905.67	9524.11
905.984	9492.48
906.297	9386.49
906.611	9419.71
906.924	9361.41
907.237	9354.85
907.551	9305.14
907.864	9234.18
908.177	9311.69
908.491	9239.6
908.804	9133.62
909.117	9129.1
909.43	9036.44
909.743	9045.93
910.056	9090
910.368	9011.81
910.681	8999.16
910.994	8881.64
911.307	8888.42
911.619	8791.7
911.932	8865.15
912.244	8734.3
912.557	8709.45
912.869	8654.98
913.181	8685.04
913.494	8636.45
913.806	8602.56
914.118	8550.58
914.43	8536.8
914.742	8472.16
915.054	8414.76
915.366	8427.65
915.678	8393.97
915.99	8333.18
916.302	8388.1
916.613	8278.05
916.925	8297.25
917.236	8270.14
917.548	8184.71
917.859	8192.17
918.171	8220.19
918.482	8124.38
918.794	8112.85
919.105	8118.95
919.416	8007.32
919.727	7969.8
920.038	7968.45
920.349	7874.21
920.66	7884.38
920.971	7865.17
921.282	7827.66
921.593	7702.01
921.903	7704.73
922.214	7708.79
922.525	7691.85
922.835	7595.8
923.146	7576.82
923.456	7571.4
923.767	7551.96
924.077	7526.88
924.387	7481.46
924.697	7467.44
925.008	7403.27
925.318	7418.63
925.628	7374.79
925.938	7347.45
926.248	7284.62
926.558	7246.89
926.867	7238.98
927.177	7178.64
927.487	7138.64
927.796	7142.93
928.106	7192.88
928.416	7123.5
928.725	7032.88
929.034	7080.34
929.344	7025.42
929.653	7008.47
929.962	6915.82
930.271	6876.73
930.581	6865.2
930.89	6859.55
931.199	6786.11
931.508	6813.68
931.817	6806.67
932.125	6805.99
932.434	6702.95
932.743	6660.23
933.051	6629.05
933.36	6589.95
933.669	6602.61
933.977	6575.72
934.286	6514.7
934.594	6500.69
934.902	6469.05
935.21	6436.96
935.519	6439.68
935.827	6460.69
936.135	6373.91
936.443	6332.79
936.751	6273.13
937.059	6364.42
937.367	6211.21
937.674	6241.26
937.982	6268.38
938.29	6221.15
938.597	6213.01
938.905	6078.78
939.213	6147.93
939.52	6121.27
939.827	6115.16
940.135	6071.55
940.442	6024.32
940.749	5974.38
941.056	5983.64
941.363	5977.77
941.67	5898.45
941.977	5863.19
942.284	5834.72
942.591	5869.29
942.898	5822.74
943.205	5770.31
943.511	5767.83
943.818	5727.15
944.125	5690.99
944.431	5617.1
944.738	5611.22
945.044	5567.16
945.35	5596.76
945.657	5569.19
945.963	5573.48
946.269	5538.68
946.575	5534.84
946.881	5502.52
947.187	5469.31
947.493	5451.23
947.799	5457.1
948.105	5398.12
948.41	5391.34
948.716	5370.32
949.022	5358.57
949.327	5304.34
949.633	5244.23
949.938	5278.12
950.244	5257.79
950.549	5218.46
950.854	5183.21
951.16	5166.04
951.465	5166.04
951.77	5118.35
952.075	5066.83
952.38	5088.98
952.685	5090.78
952.99	5027.74
953.294	5015.76
953.599	5036.1
953.904	4959.94
954.209	4941.18
954.513	4926.04
954.818	4912.03
955.122	4917.46
955.426	4884.69
955.731	4829.77
956.035	4849.66
956.339	4799.72
956.643	4797.46
956.948	4795.65
957.252	4709.78
957.556	4726.5
957.86	4654.19
958.163	4743.22
958.467	4686.95
958.771	4698.25
959.075	4661.64
959.378	4587.29
959.682	4579.39
959.985	4525.38
960.289	4531.25
960.592	4547.52
960.896	4543
961.199	4541.87
961.502	4472.04
961.805	4437.47
962.108	4437.47
962.411	4448.99
962.714	4367.19
963.017	4387.98
963.32	4403.12
963.623	4357.47
963.926	4323.8
964.228	4316.57
964.531	4289.45
964.833	4313.4
965.136	4206.51
965.438	4254.42
965.741	4197.02
966.043	4190.69
966.345	4183.24
966.648	4121.54
966.95	4127.19
967.252	4133.75
967.554	4153.86
967.856	4103.47
968.158	4061.21
968.46	4086.74
968.761	4009.68
969.063	4013.75
969.365	3953.41
969.666	3956.12
969.968	3936.24
970.269	3970.59
970.571	3929.23
970.872	3947.99
971.174	3874.32
971.475	3912.96
971.776	3860.76
972.077	3883.81
972.378	3828.67
972.679	3780.08
972.98	3811.04
973.281	3766.53
973.582	3738.73
973.883	3759.07
974.183	3691.72
974.484	3717.94
974.785	3715.68
975.085	3689.47
975.386	3693.98
975.686	3675.23
975.986	3667.54
976.287	3603.14
976.587	3628.45
976.887	3588.9
977.187	3602.24
977.487	3570.82
977.787	3554.1
978.087	3522.46
978.387	3522.01
978.687	3510.26
978.987	3502.8
979.286	3464.39
979.586	3463.71
979.885	3417.83
980.185	3412.86
980.484	3403.6
980.784	3424.61
981.083	3401.79
981.382	3356.14
981.682	3383.71
981.981	3336.25
982.28	3371.28
982.579	3279.08
982.878	3282.02
983.177	3285.41
983.475	3222.81
983.774	3291.06
984.073	3241.57
984.372	3206.09
984.67	3198.18
984.969	3206.09
985.267	3164.96
985.566	3172.42
985.864	3147.56
986.162	3115.69
986.461	3135.13
986.759	3096.71
987.057	3117.05
987.355	3122.47
987.653	3050.39
987.951	3051.52
988.249	3020.56
988.547	3046.54
988.844	2982.14
989.142	3010.61
989.44	2989.6
989.737	2979.2
990.035	2950.95
990.332	2970.16
990.63	2928.58
990.927	2877.06
991.224	2884.51
991.521	2875.93
991.819	2880.22
992.116	2890.16
992.413	2880.45
992.71	2843.16
993.006	2819.43
993.303	2841.58
993.6	2815.59
993.897	2785.76
994.193	2777.85
994.49	2754.12
994.787	2731.75
995.083	2728.13
995.379	2699.66
995.676	2717.51
995.972	2693.11
996.268	2666.67
996.565	2642.94
996.861	2656.95
997.157	2634.35
997.453	2659.44
997.749	2599.32
998.044	2611.98
998.34	2581.47
998.636	2570.4
998.932	2569.27
999.227	2543.05
999.523	2527.46
999.818	2510.51
1000.114	2513.68
1000.409	2521.13
1000.704	2449.95
1001	2469.38
1001.295	2468.71
1001.59	2483.85
1001.885	2430.29
1002.18	2428.03
1002.475	2412.21
1002.77	2400.69
1003.065	2397.52
1003.359	2387.58
1003.654	2367.47
1003.949	2310.97
1004.243	2329.5
1004.538	2301.93
1004.832	2304.19
1005.127	2321.59
1005.421	2293.8
1005.715	2264.64
1006.009	2302.61
1006.304	2270.07
1006.598	2245.66
1006.892	2222.61
1007.186	2205.89
1007.48	2180.58
1007.773	2173.8
1008.067	2171.09
1008.361	2122.05
1008.655	2171.09
1008.948	2120.24
1009.242	2145.1
1009.535	2111.65
1009.829	2057.87
1010.122	2065.1
1010.415	2074.14
1010.708	2079.11
1011.001	2023.29
1011.295	2022.84
1011.588	2019
1011.881	2016.51
1012.173	2007.7
1012.466	2038.66
1012.759	2014.03
1013.052	1982.17
1013.344	1960.47
1013.637	1944.2
1013.93	1928.38
1014.222	1922.96
1014.514	1943.3
1014.807	1891.55
1015.099	1908.04
1015.391	1865.78
1015.683	1852
1015.976	1825.56
1016.268	1843.41
1016.56	1867.37
1016.851	1842.51
1017.143	1825.33
1017.435	1786.24
1017.727	1778.55
1018.018	1804.09
1018.31	1732.23
1018.602	1784.43
1018.893	1769.06
1019.185	1742.4
1019.476	1732
1019.767	1717.77
1020.058	1666.47
1020.35	1670.76
1020.641	1666.69
1020.932	1671.67
1021.223	1667.82
1021.514	1635.06
1021.804	1595.06
1022.095	1615.85
1022.386	1604.1
1022.677	1612.23
1022.967	1593.02
1023.258	1561.16
1023.548	1560.48
1023.839	1576.98
1024.129	1545.34
1024.419	1550.09
1024.709	1491.56
1025	1504.44
1025.29	1483.87
1025.58	1474.83
1025.87	1504.89
1026.16	1482.07
1026.449	1455.17
1026.739	1493.36
1027.029	1472.35
1027.319	1424.67
1027.608	1429.64
1027.898	1434.38
1028.187	1409.75
1028.477	1399.58
1028.766	1413.82
1029.055	1370.2
1029.344	1335.63
1029.634	1365.23
1029.923	1344.67
1030.212	1340.15
1030.501	1377.89
1030.79	1338.11
1031.078	1325.46
1031.367	1308.51
1031.656	1320.26
1031.945	1287.95
1032.233	1280.26
1032.522	1273.48
1032.81	1268.29
1033.099	1262.86
1033.387	1252.02
1033.675	1256.53
1033.963	1237.33
1034.251	1238.23
1034.54	1225.58
1034.828	1199.14
1035.116	1206.37
1035.403	1176.54
1035.691	1187.38
1035.979	1176.54
1036.267	1172.02
1036.554	1177.21
1036.842	1163.66
1037.129	1131.34
1037.417	1182.86
1037.704	1134.96
1037.992	1110.55
1038.279	1109.87
1038.566	1118.69
1038.853	1118.69
1039.14	1118.69
