Data from 5405_FLMS001491_006.txt Node
Date: Thu Apr 19 16:38:21 BST 2018
User: hsy
Spectrometer: FLMS00149
Trigger mode: 0
Integration Time (sec): 1.000000E-2
Scans to average: 10
Electric dark correction enabled: true
Nonlinearity correction enabled: false
Boxcar width: 0
XAxis mode: Wavelengths
Number of Pixels in Spectrum: 2048
>>>>>Begin Spectral Data<<<<<
341.393	-9.46
341.776	-9.46
342.16	-9.46
342.543	-69.35
342.927	-54.43
343.31	-74.32
343.693	-71.38
344.077	-55.34
344.46	-59.86
344.843	-40.42
345.226	-72.29
345.61	-39.29
345.993	-25.73
346.376	3.42
346.759	14.49
347.142	36.41
347.525	41.84
347.908	70.08
348.291	81.83
348.674	81.61
349.057	108.95
349.44	102.85
349.823	138.33
350.206	156.63
350.588	190.31
350.971	241.83
351.354	253.13
351.737	267.82
352.119	285.22
352.502	280.02
352.884	295.39
353.267	315.5
353.65	334.03
354.032	311.43
354.414	320.47
354.797	334.03
355.179	336.06
355.562	330.42
355.944	355.05
356.326	350.53
356.709	359.34
357.091	355.5
357.473	367.25
357.855	365.67
358.238	369.28
358.62	361.6
359.002	367.02
359.384	367.7
359.766	381.04
360.148	367.93
360.53	362.28
360.912	372.9
361.294	359.11
361.676	374.48
362.057	375.16
362.439	358.89
362.821	377.19
363.203	362.73
363.584	339
363.966	364.54
364.348	367.02
364.729	361.37
365.111	350.53
365.493	367.25
365.874	359.57
366.256	374.03
366.637	362.96
367.019	366.12
367.4	343.3
367.781	331.32
368.163	339.23
368.544	352.79
368.925	357.76
369.306	339.68
369.688	370.64
370.069	360.02
370.45	343.3
370.831	335.39
371.212	371.32
371.593	379.23
371.974	353.69
372.355	360.02
372.736	366.12
373.117	380.13
373.498	361.37
373.879	391.43
374.26	373.13
374.641	357.76
375.021	360.7
375.402	380.13
375.783	363.63
376.163	404.76
376.544	368.38
376.925	387.59
377.305	380.58
377.686	401.15
378.066	362.05
378.447	390.75
378.827	402.5
379.208	407.02
379.588	397.98
379.968	395.5
380.349	406.8
380.729	403.41
381.109	408.83
381.489	402.28
381.87	417.87
382.25	408.38
382.63	397.76
383.01	430.07
383.39	407.93
383.77	422.16
384.15	434.14
384.53	433.92
384.91	428.72
385.29	442.28
385.67	447.47
386.049	440.24
386.429	451.99
386.809	444.76
387.189	461.71
387.568	459.23
387.948	450.86
388.328	460.58
388.707	466.91
389.087	459.9
389.466	486.34
389.846	449.06
390.225	448.15
390.605	476.63
390.984	485.67
391.363	492.44
391.743	467.59
392.122	504.65
392.501	494.7
392.881	510.3
393.26	503.97
393.639	500.13
394.018	511.88
394.397	517.08
394.776	506.23
395.155	534.93
395.534	523.4
395.913	514.14
396.292	527.92
396.671	535.16
397.05	546.23
397.429	542.16
397.808	536.74
398.186	546.45
398.565	571.09
398.944	557.75
399.323	553.46
399.701	552.1
400.08	558.88
400.458	588.71
400.837	577.87
401.215	607.92
401.594	613.8
401.972	574.7
402.351	584.42
402.729	610.86
403.107	599.33
403.486	600.46
403.864	602.72
404.242	617.87
404.62	634.59
404.999	643.85
405.377	642.05
405.755	628.26
406.133	652.67
406.511	652.21
406.889	670.52
407.267	691.99
407.645	662.61
408.023	704.42
408.401	680.69
408.779	700.8
409.156	725.21
409.534	716.85
409.912	720.01
410.29	746.45
410.667	723.4
411.045	773.34
411.422	775.15
411.8	761.14
412.178	771.31
412.555	801.14
412.933	799.1
413.31	810.63
413.687	817.18
414.065	840.01
414.442	837.52
414.819	834.81
415.197	857.41
415.574	870.74
415.951	868.93
416.328	889.72
416.705	891.08
417.082	875.49
417.46	905.99
417.837	893.79
418.214	895.82
418.591	892.89
418.967	914.35
419.344	932.66
419.721	908.93
420.098	947.8
420.475	970.85
420.852	954.58
421.228	976.95
421.605	997.74
421.982	1000.68
422.358	991.64
422.735	1025.99
423.111	1014.92
423.488	1047.68
423.864	1047.68
424.241	1059.89
424.617	1057.63
424.994	1070.06
425.37	1083.39
425.746	1086.78
426.123	1091.3
426.499	1127
426.875	1112.54
427.251	1151.18
427.627	1132.2
428.003	1151.64
428.379	1160.45
428.756	1183.27
429.132	1205.65
429.507	1206.32
429.883	1232.54
430.259	1244.97
430.635	1271.41
431.011	1289.49
431.387	1290.39
431.763	1329.48
432.138	1346.66
432.514	1333.78
432.89	1334.91
433.265	1392.99
433.641	1375.59
434.016	1430.95
434.392	1419.43
434.767	1446.77
435.143	1444.74
435.518	1468.92
435.894	1499.65
436.269	1510.5
436.644	1514.11
437.02	1530.61
437.395	1563.38
437.77	1569.7
438.145	1602.02
438.52	1627.33
438.895	1638.63
439.271	1630.04
439.646	1640.66
440.021	1653.32
440.395	1679.08
440.77	1651.28
441.145	1665.75
441.52	1701.68
441.895	1684.5
442.27	1729.7
442.645	1725.18
443.019	1755.01
443.394	1763.15
443.769	1795.24
444.143	1775.12
444.518	1803.37
444.892	1762.47
445.267	1810.15
445.641	1822.13
446.016	1851.05
446.39	1877.27
446.764	1853.09
447.139	1850.83
447.513	1861.45
447.887	1893.76
448.262	1907.32
448.636	1900.09
449.01	1940.32
449.384	1946.19
449.758	1978.51
450.132	1964.72
450.506	1985.06
450.88	1997.94
451.254	2025.06
451.628	2021.44
452.002	2060.77
452.376	2097.15
452.75	2101.89
453.123	2141.89
453.497	2131.05
453.871	2168.56
454.244	2185.96
454.618	2210.59
454.992	2255.34
455.365	2286.97
455.739	2309.35
456.112	2337.37
456.486	2367.65
456.859	2363.36
457.232	2449
457.606	2452.62
457.979	2451.49
458.352	2531.71
458.725	2522.22
459.099	2564.25
459.472	2571.26
459.845	2641.31
460.218	2628.43
460.591	2667.08
460.964	2684.93
461.337	2730.8
461.71	2772.61
462.083	2823
462.456	2836.11
462.829	2861.2
463.201	2925.38
463.574	2914.75
463.947	2949.56
464.32	2964.92
464.692	3006.95
465.065	3007.86
465.438	3070.91
465.81	3080.4
466.183	3133.28
466.555	3188.42
466.928	3258.93
467.3	3160.17
467.672	3255.54
468.045	3317.91
468.417	3324.91
468.789	3338.92
469.161	3393.84
469.534	3432.25
469.906	3462.99
470.278	3505.92
470.65	3590.22
471.022	3633.15
471.394	3643.77
471.766	3742.98
472.138	3729.65
472.51	3832.7
472.882	3868.63
473.253	3907.04
473.625	3924.9
473.997	4032.46
474.369	4037.89
474.74	4105.46
475.112	4142.97
475.484	4182.07
475.855	4292.8
476.227	4313.14
476.598	4431.1
476.97	4501.15
477.341	4532.56
477.713	4665.22
478.084	4682.84
478.455	4783.86
478.827	4809.85
479.198	4890.75
479.569	4975.94
479.94	5113.34
480.311	5131.19
480.682	5265.2
481.053	5323.05
481.424	5442.6
481.795	5444.18
482.166	5542.48
482.537	5632.42
482.908	5722.82
483.279	5806.43
483.65	5963.49
484.021	6010.72
484.391	6143.6
484.762	6161
485.133	6187.66
485.503	6313.08
485.874	6417.26
486.244	6487.77
486.615	6621.55
486.985	6691.6
487.356	6821.32
487.726	6913.52
488.097	6994.65
488.467	7054.53
488.837	7229.89
489.207	7240.29
489.578	7433.73
489.948	7487.06
490.318	7546.04
490.688	7591.92
491.058	7734.51
491.428	7827.85
491.798	7897.22
492.168	8087.27
492.538	8155.97
492.908	8195.29
493.278	8344.67
493.648	8340.83
494.017	8542.85
494.387	8580.82
494.757	8568.84
495.126	8722.28
495.496	8737.2
495.866	8850.64
496.235	8911.88
496.605	9020.13
496.974	9065.33
497.344	9097.19
497.713	9181.93
498.082	9253.34
498.452	9333.57
498.821	9427.8
499.19	9450.18
499.559	9533.79
499.928	9594.35
500.298	9687.91
500.667	9811.07
501.036	9730.85
501.405	9920.22
501.774	9936.72
502.143	9951.18
502.512	9966.32
502.88	10126.32
503.249	10131.97
503.618	10186.65
503.987	10281.34
504.356	10352.3
504.724	10344.84
505.093	10457.38
505.462	10526.08
505.83	10569.02
506.199	10622.35
506.567	10733.98
506.936	10819.4
507.304	10902.34
507.672	10897.59
508.041	11028.44
508.409	11110.47
508.777	11162.22
509.145	11219.39
509.514	11255.55
509.882	11327.41
510.25	11345.72
510.618	11478.37
510.986	11501.65
511.354	11611.25
511.722	11734.86
512.09	11787.51
512.458	11804.46
512.826	11919.49
513.193	11898.92
513.561	12029.99
513.929	12152.25
514.297	12224.57
514.664	12312.7
515.032	12384.56
515.4	12445.35
515.767	12549.08
516.135	12527.61
516.502	12554.73
516.869	12775.74
517.237	12792.91
517.604	12798.56
517.972	13028.84
518.339	13112.9
518.706	13129.4
519.073	13252.56
519.44	13302.28
519.808	13493.91
520.175	13479.9
520.542	13667.47
520.909	13740.68
521.276	13774.58
521.643	13968.7
522.009	13984.07
522.376	14100.45
522.743	14241.01
523.11	14380.89
523.477	14497.27
523.843	14544.96
524.21	14752.63
524.577	14853.2
524.943	14974.1
525.31	15080.54
525.676	15254.32
526.043	15173.64
526.409	15390.13
526.776	15621.99
527.142	15611.14
527.508	15822.21
527.874	15888.42
528.241	15923.9
528.607	15995.31
528.973	16211.81
529.339	16286.38
529.705	16464.23
530.071	16501.29
530.437	16695.41
530.803	16639.59
531.169	16844.11
531.535	16760.49
531.901	17002.07
532.267	17012.01
532.632	17151.22
532.998	17323.87
533.364	17352.34
533.73	17370.42
534.095	17609.06
534.461	17573.13
534.826	17819.67
535.192	17831.2
535.557	17940.57
535.923	17905.55
536.288	18059.89
536.653	18089.27
537.019	18091.76
537.384	18187.35
537.749	18205.2
538.114	18309.6
538.479	18315.7
538.845	18421.46
539.21	18438.87
539.575	18451.29
539.94	18457.17
540.305	18705.53
540.67	18691.51
541.034	18746.88
541.399	18781.23
541.764	18788.91
542.129	18809.25
542.494	18932.86
542.858	18924.5
543.223	18950.04
543.587	18982.81
543.952	19140.99
544.316	19065.52
544.681	19099.87
545.045	19289.69
545.41	19342.12
545.774	19199.98
546.138	19257.6
546.503	19343.93
546.867	19477.03
547.231	19424.83
547.595	19540.98
547.959	19587.99
548.324	19585.73
548.688	19662.34
549.052	19722.67
549.416	19656.46
549.779	19764.93
550.143	19691.49
550.507	19922.67
550.871	19889.45
551.235	19915.44
551.599	20075.43
551.962	20149.78
552.326	20263
552.689	20230.68
553.053	20075.21
553.417	20294.41
553.78	20476.78
554.143	20454.41
554.507	20498.25
554.87	20605.36
555.234	20733.72
555.597	20744.12
555.96	20775.08
556.323	20838.58
556.686	20939.59
557.05	21086.71
557.413	21143.88
557.776	21070.43
558.139	21214.61
558.502	21320.82
558.865	21379.35
559.228	21578.67
559.59	21507.49
559.953	21643.07
560.316	21813.47
560.679	21860.24
561.041	22038.54
561.404	22152.21
561.767	22317.63
562.129	22326.45
562.492	22513.11
562.854	22690.05
563.217	22768.92
563.579	22782.03
563.941	23048.91
564.304	23179.76
564.666	23388.79
565.028	23398.28
565.39	23404.16
565.753	23725.05
566.115	23808.44
566.477	24102.45
566.839	24262.44
567.201	24351.93
567.563	24365.72
567.925	24673.28
568.287	24808.42
568.648	24754.63
569.01	25057.22
569.372	25368.85
569.734	25449.08
570.095	25663.76
570.457	25842.51
570.819	25971.55
571.18	26102.62
571.542	26366.57
571.903	26470.07
572.265	26738.99
572.626	26960.22
572.987	26984.4
573.349	27223.27
573.71	27407.9
574.071	27489.02
574.432	27712.97
574.794	28007.2
575.155	28042.23
575.516	28175.11
575.877	28320.41
576.238	28545.94
576.599	28661.87
576.96	28809.67
577.32	28859.61
577.681	29124.23
578.042	29326.04
578.403	29383.89
578.763	29329.65
579.124	29426.37
579.485	29815.74
579.845	29844.44
580.206	29898.68
580.566	29980.26
580.927	29928.05
581.287	30197.65
581.648	30292.11
582.008	30415.95
582.368	30394.26
582.728	30433.8
583.089	30459.57
583.449	30460.24
583.809	30714.93
584.169	30674.93
584.529	30633.57
584.889	30947.01
585.249	30825.21
585.609	30709.5
585.969	31031.08
586.329	30942.27
586.688	30956.05
587.048	30966.22
587.408	30926.22
587.768	31031.75
588.127	30955.37
588.487	30981.13
588.846	31259.09
589.206	31055.48
589.565	31118.53
589.925	31267
590.284	31129.83
590.643	31093.9
591.003	31257.06
591.362	31387.45
591.721	31341.35
592.08	31226.33
592.44	31530.05
592.799	31342.03
593.158	31392.2
593.517	31397.39
593.876	31572.31
594.235	31322.37
594.593	31394.46
594.952	31598.29
595.311	31456.38
595.67	31549.03
596.029	31670.38
596.387	31732.53
596.746	31930.26
597.104	31626.77
597.463	31683.94
597.822	31916.48
598.18	31685.97
598.538	31765.97
598.897	31909.92
599.255	31676.26
599.613	32145.62
599.972	31959.19
600.33	31955.35
600.688	32029.47
601.046	32156.24
601.404	32198.5
601.762	32023.14
602.12	32181.33
602.478	32243.7
602.836	32369.35
603.194	32118.96
603.552	32250.25
603.91	32164.15
604.268	32436.01
604.625	32321.89
604.983	32562.79
605.341	32436.69
605.698	32646.85
606.056	32773.18
606.413	32556.46
606.771	32691.6
607.128	32687.98
607.485	32689.11
607.843	32784.02
608.2	32777.02
608.557	32878.94
608.914	32867.19
609.272	33108.08
609.629	33159.61
609.986	33188.76
610.343	33075.99
610.7	33277.12
611.057	33295.65
611.414	33178.82
611.771	33504.91
612.127	33393.05
612.484	33606.83
612.841	33820.83
613.198	33526.83
613.554	33427.62
613.911	33685.92
614.267	33831.68
614.624	33841.62
614.98	33871.68
615.337	34174.04
615.693	33958.01
616.05	33993.94
616.406	34139.02
616.762	34031
617.118	34069.19
617.475	34151.67
617.831	34257.66
618.187	34186.02
618.543	34203.2
618.899	34557.76
619.255	34412.23
619.611	34328.39
619.967	34583.53
620.323	34663.3
620.678	34401.16
621.034	34532.23
621.39	34483.64
621.746	34337.66
622.101	34908.49
622.457	34557.99
622.812	34760.02
623.168	34824.88
623.523	34722.28
623.879	34872.78
624.234	34639.12
624.589	34899
624.945	34887.25
625.3	34915.49
625.655	34873.69
626.01	35019.22
626.365	35025.32
626.72	34862.61
627.075	34750.3
627.43	34869.85
627.785	34798.44
628.14	34889.05
628.495	34993.23
628.85	34904.87
629.205	34868.72
629.559	34886.34
629.914	34733.13
630.269	34725.89
630.623	34520.25
630.978	34588.72
631.332	34825.33
631.687	34717.31
632.041	34715.73
632.396	34554.83
632.75	34550.31
633.104	34624.65
633.459	34451.78
633.813	34543.53
634.167	34397.54
634.521	34456.07
634.875	34538.56
635.229	34337.43
635.583	34170.66
635.937	34117.32
636.291	34109.64
636.645	34250.43
636.999	34021.05
637.352	33959.81
637.706	33925.24
638.06	33932.02
638.413	33982.64
638.767	33795.3
639.121	33881.4
639.474	33743.55
639.828	33777.9
640.181	33744.23
640.534	33839.59
640.888	33703.55
641.241	33363.9
641.594	33579.94
641.947	33665.58
642.301	33511.01
642.654	33515.76
643.007	33442.09
643.36	33499.71
643.713	33304.24
644.066	33431.69
644.419	33280.06
644.771	32887.53
645.124	32540.19
645.477	32589.45
645.83	32484.82
646.182	32595.33
646.535	32526.63
646.888	32541.32
647.24	32476.24
647.593	32704.71
647.945	32474.2
648.298	32485.95
648.65	32220.2
649.002	31925.06
649.355	31846.87
649.707	31676.71
650.059	31755.58
650.411	32234.43
650.763	32490.93
651.115	32872.61
651.467	32869.45
651.819	32882.55
652.171	32754.65
652.523	32690.47
652.875	32695.67
653.227	32663.35
653.578	32856.34
653.93	32641.2
654.282	32647.98
654.633	32684.59
654.985	32664.48
655.337	32674.65
655.688	32685.27
656.039	32776.12
656.391	32542.22
656.742	32546.29
657.094	32715.33
657.445	32701.54
657.796	32568.44
658.147	32591.71
658.498	32708.32
658.849	32578.61
659.2	32539.96
659.551	32399.18
659.902	32721.2
660.253	32491.15
660.604	32584.48
660.955	32492.96
661.306	32578.83
661.656	32491.38
662.007	32622.67
662.358	32422.45
662.708	32625.61
663.059	32460.87
663.409	32531.6
663.76	32621.32
664.11	32609.57
664.461	32720.98
664.811	32751.26
665.161	32638.27
665.511	32635.78
665.862	32595.33
666.212	32605.5
666.562	32698.83
666.912	32666.74
667.262	32515.11
667.612	32677.59
667.962	32615.44
668.312	32462.23
668.662	32650.24
669.011	32642.56
669.361	32635.33
669.711	32625.84
670.06	32408.89
670.41	32488.44
670.76	32401.21
671.109	32659.96
671.459	32589.45
671.808	32518.27
672.157	32469.46
672.507	32353.53
672.856	32428.55
673.205	32342.23
673.554	32363.7
673.904	32398.27
674.253	32589
674.602	32426.52
674.951	31870.15
675.3	31735.46
675.649	32235.56
675.998	32243.93
676.346	32178.17
676.695	32416.13
677.044	32125.06
677.393	32189.69
677.741	32151.27
678.09	32160.31
678.438	31926.65
678.787	32128.9
679.135	32095
679.484	31744.96
679.832	31944.05
680.181	31882.81
680.529	31931.39
680.877	31700.44
681.225	31707.22
681.573	31940.66
681.922	31768.46
682.27	31665.41
682.618	31618.18
682.966	31554
683.314	31501.57
683.661	31549.71
684.009	31353.78
684.357	31347.9
684.705	31251.41
685.053	31227.68
685.4	31156.5
685.748	31053
686.095	30854.13
686.443	30853.45
686.79	30704.76
687.138	30856.39
687.485	30835.15
687.832	30507.7
688.18	30627.47
688.527	30452.33
688.874	30389.29
689.221	30386.57
689.568	30301.6
689.915	30062.51
690.262	30076.53
690.609	30112.68
690.956	29934.16
691.303	29917.43
691.65	29790.21
691.997	29791.56
692.344	29655.52
692.69	29523.09
693.037	29693.26
693.383	29139.83
693.73	29425.24
694.077	29176.21
694.423	29145.93
694.769	29049.43
695.116	29017.12
695.462	28883.56
695.808	28753.17
696.155	28818.03
696.501	28601.99
696.847	28616
697.193	28385.72
697.539	28499.84
697.885	28167.2
698.231	28108.44
698.577	28020.76
698.923	27974.21
699.269	27896.24
699.614	27680.2
699.96	27631.39
700.306	27670.49
700.651	27480.89
700.997	27486.09
701.342	27381
701.688	27111.41
702.033	27069.15
702.379	27105.3
702.724	26916.61
703.069	27042.03
703.415	26683.62
703.76	26653.79
704.105	26653.56
704.45	26517.75
704.795	26565.21
705.14	26354.82
705.485	26442.5
705.83	26139.45
706.175	26374.7
706.52	26164.99
706.865	26035.95
707.209	26000.25
707.554	26048.16
707.899	25887.71
708.243	25795.73
708.588	25663.53
708.932	25766.13
709.277	25680.71
709.621	25518.91
709.966	25451.79
710.31	25532.69
710.654	25340.15
710.998	25325.69
711.342	25366.59
711.687	25226.48
712.031	25165.24
712.375	25059.03
712.719	25042.76
713.063	24962.54
713.407	24988.07
713.75	24967.73
714.094	24932.93
714.438	24818.13
714.782	24931.8
715.125	24748.3
715.469	24890.9
715.812	24632.6
716.156	24631.47
716.499	24589.44
716.843	24565.26
717.186	24564.13
717.53	24758.25
717.873	24610
718.216	24586.95
718.559	24428.54
718.902	24384.47
719.246	24421.53
719.589	24469.67
719.932	24230.8
720.275	24266.96
720.617	24323.46
720.96	24253.63
721.303	24307.86
721.646	24312.61
721.989	24045.27
722.331	24144.03
722.674	24111.03
723.016	24258.15
723.359	24086.4
723.701	24139.96
724.044	24153.29
724.386	24029.45
724.729	24080.07
725.071	24148.09
725.413	24172.73
725.755	24135.44
726.097	23957.36
726.439	23945.84
726.782	23917.37
727.124	24009.11
727.465	23898.83
727.807	23844.15
728.149	23920.76
728.491	23843.92
728.833	23952.39
729.175	23963.92
729.516	23796.69
729.858	23855.67
730.199	23876.69
730.541	23810.7
730.882	23802.79
731.224	23944.48
731.565	23835.11
731.906	23829.68
732.248	23899.51
732.589	23728.22
732.93	23792.62
733.271	23873.75
733.612	23700.42
733.953	23924.14
734.294	23843.92
734.635	23877.37
734.976	23978.38
735.317	23822
735.658	23906.74
735.999	23810.02
736.339	23953.3
736.68	23909.91
737.021	23888.21
737.361	23904.26
737.702	24032.62
738.042	23950.36
738.383	24047.53
738.723	23911.94
739.063	23887.99
739.404	24008.89
739.744	23849.34
740.084	23862.9
740.424	24061.54
740.764	23954.88
741.104	24153.97
741.444	24002.33
741.784	23949.46
742.124	24157.13
742.464	24246.4
742.804	24084.37
743.143	24191.26
743.483	24211.37
743.823	24134.53
744.162	24241.88
744.502	24256.79
744.841	24343.34
745.181	24411.59
745.52	24374.53
745.86	24424.92
746.199	24457.92
746.538	24496.79
746.877	24615.88
747.216	24679.15
747.556	24557.57
747.895	24600.06
748.234	24751.02
748.573	24701.07
748.911	24788.3
749.25	24865.59
749.589	24834.4
749.928	24958.24
750.267	25050.67
750.605	25033.95
750.944	25094.96
751.283	25120.95
751.621	25309.42
751.96	25188.07
752.298	25327.5
752.636	25432.13
752.975	25341.73
753.313	25359.36
753.651	25669.86
753.989	25530.66
754.327	25632.35
754.666	25644.55
755.004	25729.52
755.342	25726.58
755.679	25863.53
756.017	25688.84
756.355	25983.07
756.693	25958.22
757.031	26126.57
757.368	25997.76
757.706	26115.95
758.044	26177.87
758.381	26209.51
758.719	26102.39
759.056	26231.65
759.394	26200.7
759.731	26242.28
760.068	26168.38
760.405	26284.76
760.743	26276.4
761.08	26299.68
761.417	26261.71
761.754	26178.55
762.091	26269.85
762.428	26246.34
762.765	26177.87
763.102	26325.21
763.438	26274.82
763.775	26193.69
764.112	26213.58
764.449	26410.63
764.785	26208.6
765.122	26127.02
765.458	26197.31
765.795	26181.94
766.131	26159.11
766.467	26052.45
766.804	26024.65
767.14	25987.14
767.476	25983.3
767.812	25837.31
768.148	25980.36
768.485	25910.31
768.821	25740.59
769.157	25724.55
769.492	25722.06
769.828	25686.81
770.164	25529.3
770.5	25439.36
770.836	25429.64
771.171	25359.14
771.507	25295.86
771.842	25141.97
772.178	25231.23
772.513	25140.16
772.849	25160.27
773.184	25181.51
773.519	25032.36
773.855	24833.27
774.19	24918.92
774.525	24863.1
774.86	24765.7
775.195	24792.6
775.53	24565.94
775.865	24372.27
776.2	24361.2
776.535	24240.97
776.87	24238.04
777.205	24118.49
777.539	24103.12
777.874	24194.19
778.209	23846.41
778.543	23953.3
778.878	23742.68
779.212	23835.33
779.547	23635.34
779.881	23647.77
780.215	23444.84
780.55	23561.22
780.884	23500.43
781.218	23352.63
781.552	23431.05
781.886	23256.82
782.22	23074.68
782.554	23107.67
782.888	22932.31
783.222	22859.54
783.556	22681.92
783.889	22742.26
784.223	22439.44
784.557	22653.67
784.89	22466.56
785.224	22406.44
785.557	22344.53
785.891	22238.99
786.224	22203.96
786.558	22195.15
786.891	22000.35
787.224	21937.76
787.557	21897.08
787.891	21894.37
788.224	21742.51
788.557	21696.86
788.89	21686.01
789.223	21549.52
789.556	21555.85
789.888	21462.51
790.221	21332.12
790.554	21178.91
790.887	21191.56
791.219	21112.69
791.552	21120.38
791.884	21018.68
792.217	20944.79
792.549	20912.7
792.882	20714.29
793.214	20790.44
793.546	20643.33
793.879	20544.12
794.211	20387.51
794.543	20524.91
794.875	20454.18
795.207	20460.51
795.539	20363.56
795.871	20273.17
796.203	20139.84
796.535	20016.45
796.867	20070.69
797.198	19868.88
797.53	19910.69
797.862	19730.81
798.193	19721.09
798.525	19725.16
798.856	19765.84
799.188	19418.27
799.519	19451.72
799.85	19353.19
800.182	19340.54
800.513	19413.76
800.844	19075.91
801.175	19315.68
801.506	19175.12
801.837	19101.67
802.168	19068.68
802.499	19130.37
802.83	18979.19
803.161	18860.55
803.491	18875.92
803.822	18918.63
804.153	18754.56
804.483	18715.92
804.814	18565.19
805.145	18604.51
805.475	18604.51
805.805	18527
806.136	18474.12
806.466	18450.84
806.796	18472.99
807.126	18345.53
807.457	18287.23
807.787	18406.55
808.117	18210.17
808.447	18152.09
808.777	18218.08
809.107	18075.26
809.436	17934.92
809.766	17924.75
810.096	17936.05
810.426	17862.16
810.755	17820.8
811.085	17768.83
811.414	17742.39
811.744	17654.48
812.073	17712.33
812.403	17581.71
812.732	17476.18
813.061	17615.84
813.39	17426.91
813.719	17423.52
814.049	17529.96
814.378	17411.1
814.707	17323.64
815.036	17296.07
815.365	17214.04
815.693	17131.1
816.022	17012.24
816.351	17065.34
816.68	16991.67
817.008	17023.99
817.337	16860.83
817.665	16919.58
817.994	16928.17
818.322	16967.94
818.651	16829.19
818.979	16826.48
819.307	16786.25
819.636	16768.4
819.964	16703.77
820.292	16772.92
820.62	16761.17
820.948	16701.06
821.276	16779.93
821.604	16617.22
821.932	16831
822.259	16678.01
822.587	16596.88
822.915	16595.07
823.243	16742.41
823.57	16635.75
823.898	16721.85
824.225	16597.78
824.553	16583.1
824.88	16716.42
825.207	16765.01
825.535	16680.04
825.862	16736.54
826.189	16584.22
826.516	16728.4
826.843	16675.75
827.17	16671.23
827.497	16748.06
827.824	16685.01
828.151	16771.34
828.478	16704.22
828.805	16764.33
829.131	16679.82
829.458	16762.07
829.785	16500.61
830.111	16610.89
830.438	16695.18
830.764	16677.33
831.09	16647.27
831.417	16594.62
831.743	16748.06
832.069	16653.83
832.395	16595.07
832.722	16723.2
833.048	16596.2
833.374	16673.26
833.7	16554.4
834.026	16629.2
834.351	16519.82
834.677	16615.18
835.003	16590.33
835.329	16549.65
835.654	16459.03
835.98	16428.97
836.306	16490.44
836.631	16473.49
836.956	16544.68
837.282	16484.57
837.607	16522.76
837.932	16405.7
838.258	16404.12
838.583	16420.39
838.908	16287.06
839.233	16346.72
839.558	16353.72
839.883	16215.87
840.208	16226.49
840.533	16213.16
840.858	16180.85
841.182	16233.95
841.507	16217
841.832	16043.45
842.156	16125.48
842.481	15971.81
842.805	16012.71
843.13	15981.75
843.454	15958.25
843.778	15855.66
844.103	15923.45
844.427	15919.84
844.751	15924.81
845.075	15818.37
845.399	15798.26
845.723	15745.6
846.047	15734.76
846.371	15556.46
846.695	15567.53
847.019	15461.77
847.343	15403.24
847.666	15412.28
847.99	15307.65
848.313	15195.11
848.637	15214.09
848.96	15192.62
849.284	15154.21
849.607	15025.62
849.931	15013.19
850.254	14866.3
850.577	14758.28
850.9	14741.34
851.223	14709.47
851.546	14738.85
851.869	14648.46
852.192	14652.75
852.515	14572.07
852.838	14564.62
853.161	14406.2
853.483	14369.14
853.806	14360.1
854.129	14252.99
854.451	14223.16
854.774	14210.28
855.096	14116.49
855.419	14034.91
855.741	14123.5
856.063	14014.58
856.385	13913.33
856.708	13940.68
857.03	13824.52
857.352	13840.34
857.674	13810.74
857.996	13758.76
858.318	13719.67
858.64	13701.59
858.961	13577.98
859.283	13549.5
859.605	13543.4
859.926	13530.52
860.248	13540.92
860.57	13398.32
860.891	13408.04
861.212	13437.64
861.534	13424.08
861.855	13325.78
862.176	13268.15
862.498	13376.85
862.819	13344.54
863.14	13199.68
863.461	13197.65
863.782	13135.5
864.103	13141.38
864.424	13073.13
864.745	13145.45
865.065	13047.82
865.386	13086.01
865.707	13107.93
866.027	13021.83
866.348	12972.34
866.668	12940.93
866.989	12901.16
867.309	12799.92
867.63	12866.81
867.95	12986.13
868.27	12790.2
868.59	12861.38
868.91	12787.71
869.23	12794.49
869.55	12668.62
869.87	12769.86
870.19	12715.63
870.51	12697.1
870.83	12741.84
871.15	12586.59
871.469	12593.6
871.789	12701.39
872.109	12612.35
872.428	12590.43
872.748	12595.63
873.067	12597.66
873.386	12567.38
873.706	12541.17
874.025	12497.1
874.344	12512.69
874.663	12404
874.982	12395.41
875.301	12402.41
875.62	12363.77
875.939	12382.3
876.258	12386.6
876.577	12268.18
876.896	12249.2
877.214	12122.65
877.533	12261.17
877.852	12171.23
878.17	12197.67
878.489	12248.07
878.807	12181.85
879.125	12261.63
879.444	12126.49
879.762	12162.65
880.08	12189.09
880.398	12072.25
880.716	12133.49
881.034	11997.9
881.352	11979.6
881.67	11980.73
881.988	11970.11
882.306	11901.86
882.624	12018.92
882.941	11784.8
883.259	11868.87
883.577	11854.18
883.894	11770.57
884.212	11781.64
884.529	11775.54
884.846	11639.5
885.164	11742.77
885.481	11600.4
885.798	11625.49
886.115	11564.02
886.432	11654.19
886.75	11624.58
887.067	11601.53
887.383	11575.09
887.7	11492.61
888.017	11399.73
888.334	11418.26
888.651	11367.19
888.967	11364.7
889.284	11317.92
889.6	11273.86
889.917	11234.31
890.233	11312.05
890.55	11203.8
890.866	11181.66
891.182	11154.31
891.498	11147.08
891.815	11039.51
892.131	11038.16
892.447	11002.68
892.763	10940.53
893.079	11039.29
893.395	10889.46
893.71	10887.65
894.026	10858.73
894.342	10880.42
894.657	10728.56
894.973	10725.62
895.289	10707.77
895.604	10660.99
895.92	10640.2
896.235	10603.37
896.55	10599.52
896.865	10484.72
897.181	10538.28
897.496	10496.7
897.811	10438.62
898.126	10370.15
898.441	10402.92
898.756	10403.37
899.071	10268.01
899.386	10345.52
899.7	10256.26
900.015	10229.82
900.33	10160.67
900.644	10112.98
900.959	10069.37
901.273	10032.98
901.588	10077.73
901.902	10011.97
902.216	9941.24
902.531	9961.8
902.845	9905.98
903.159	9867.57
903.473	9821.01
903.787	9747.79
904.101	9734.69
904.415	9742.14
904.729	9710.28
905.042	9658.76
905.356	9635.03
905.67	9602.26
905.984	9588.25
906.297	9558.42
906.611	9433.45
906.924	9424.87
907.237	9428.71
907.551	9402.04
907.864	9273.68
908.177	9340.35
908.491	9270.97
908.804	9208.6
909.117	9125.44
909.43	9133.35
909.743	9102.61
910.056	9136.29
910.368	9113.46
910.681	9036.85
910.994	9003.86
911.307	8919.57
911.619	8853.81
911.932	8882.28
912.244	8826.69
912.557	8814.03
912.869	8766.13
913.181	8760.48
913.494	8762.28
913.806	8670.08
914.118	8613.81
914.43	8591.44
914.742	8555.28
915.054	8514.15
915.366	8492.69
915.678	8407.72
915.99	8397.55
916.302	8296.31
916.613	8285.91
916.925	8336.76
917.236	8316.87
917.548	8236.2
917.859	8191.23
918.171	8220.6
918.482	8123.88
918.794	8103.54
919.105	8087.95
919.416	8075.07
919.727	8042.08
920.038	8042.3
920.349	7966.37
920.66	7943.32
920.971	7945.13
921.282	7935.41
921.593	7802.08
921.903	7790.56
922.214	7716.89
922.525	7682.54
922.835	7668.3
923.146	7616.1
923.456	7584.46
923.767	7618.36
924.077	7539.27
924.387	7552.6
924.697	7530
925.008	7447.29
925.318	7470.11
925.628	7412.04
925.938	7413.17
926.248	7308.99
926.558	7280.97
926.867	7290.91
927.177	7243.23
927.487	7179.5
927.796	7147.64
928.106	7128.88
928.416	7127.98
928.725	7107.86
929.034	7059.73
929.344	7076
929.653	7046.62
929.962	6957.36
930.271	6951.03
930.581	6924.14
930.89	6873.75
931.199	6834.2
931.508	6772.28
931.817	6858.6
932.125	6806.63
932.434	6796.46
932.743	6737.93
933.051	6655.22
933.36	6706.52
933.669	6597.82
933.977	6625.84
934.286	6596.46
934.594	6575.9
934.902	6534.32
935.21	6530.25
935.519	6511.27
935.827	6458.84
936.135	6427.66
936.443	6379.52
936.751	6341.1
937.059	6382.69
937.367	6319.18
937.674	6359.41
937.982	6287.32
938.29	6229.24
938.597	6290.03
938.905	6130.71
939.213	6192.41
939.52	6100.88
939.827	6175.01
940.135	6028.57
940.442	6100.43
940.749	6042.58
941.056	6010.72
941.363	5977.72
941.67	5982.24
941.977	5909.03
942.284	5903.83
942.591	5865.41
942.898	5889.82
943.205	5871.06
943.511	5791.97
943.818	5730.5
944.125	5739.54
944.431	5725.08
944.738	5788.12
945.044	5671.52
945.35	5651.41
945.657	5628.35
945.963	5650.95
946.269	5555.14
946.575	5534.12
946.881	5558.3
947.187	5525.53
947.493	5491.18
947.799	5438.08
948.105	5396.5
948.41	5412.77
948.716	5362.37
949.022	5389.72
949.327	5356.72
949.633	5321.02
949.938	5278.53
950.244	5319.21
950.549	5229.72
950.854	5210.06
951.16	5203.28
951.465	5155.15
951.77	5205.77
952.075	5192.43
952.38	5176.84
952.685	5129.84
952.99	5078.99
953.294	5013.68
953.599	5069.5
953.904	5027.69
954.209	4933.91
954.513	4983.17
954.818	4930.97
955.122	4908.37
955.426	4931.88
955.731	4841.71
956.035	4824.53
956.339	4855.95
956.643	4863.4
956.948	4775.27
957.252	4772.11
957.556	4773.24
957.86	4754.25
958.163	4750.86
958.467	4691.43
958.771	4717.87
959.075	4646.46
959.378	4642.84
959.682	4629.74
959.985	4587.25
960.289	4554.94
960.592	4556.29
960.896	4546.35
961.199	4600.81
961.502	4512.23
961.805	4521.04
962.108	4458.67
962.411	4435.17
962.714	4389.52
963.017	4445.34
963.32	4394.71
963.623	4385.22
963.926	4360.14
964.228	4328.5
964.531	4349.29
964.833	4307.49
965.136	4277.2
965.438	4271.55
965.741	4253.25
966.043	4265.68
966.345	4222.52
966.648	4123.99
966.95	4201.05
967.252	4187.49
967.554	4163.08
967.856	4121.05
968.158	4138.68
968.46	4130.32
968.761	4054.61
969.063	4062.29
969.365	4046.25
969.666	4005.8
969.968	3984.1
970.269	3959.7
970.571	3938.91
970.872	3956.08
971.174	3960.15
971.475	3909.98
971.776	3947.95
972.077	3935.07
972.378	3854.16
972.679	3833.6
972.98	3829.98
973.281	3810.32
973.582	3816.2
973.883	3793.37
974.183	3778.01
974.484	3729.87
974.785	3737.56
975.085	3750.89
975.386	3776.43
975.686	3686.48
975.986	3667.95
976.287	3630.89
976.587	3666.15
976.887	3607.62
977.187	3566.26
977.487	3617.79
977.787	3589.31
978.087	3540.95
978.387	3541.4
978.687	3537.56
978.987	3528.07
979.286	3506.15
979.586	3475.19
979.885	3465.02
980.185	3391.13
980.484	3413.95
980.784	3396.55
981.083	3422.09
981.382	3389.77
981.682	3394.52
981.981	3394.06
982.28	3350.22
982.579	3334.18
982.878	3317.23
983.177	3267.06
983.475	3264.12
983.774	3237.23
984.073	3275.65
984.372	3231.13
984.67	3238.59
984.969	3248.53
985.267	3201.75
985.566	3172.83
985.864	3163.56
986.162	3155.43
986.461	3151.13
986.759	3136.22
987.057	3102.77
987.355	3085.14
987.653	3101.87
987.951	3077.91
988.249	3095.09
988.547	3024.36
988.844	3053.96
989.142	3016.9
989.44	2994.53
989.737	2985.94
990.035	2993.17
990.332	2969.67
990.63	2952.94
990.927	2955.66
991.224	2930.35
991.521	2909.56
991.819	2881.99
992.116	2873.63
992.413	2877.01
992.71	2885.38
993.006	2814.19
993.303	2856.45
993.6	2861.87
993.897	2785.27
994.193	2791.59
994.49	2781.2
994.787	2756.79
995.083	2766.06
995.379	2749.56
995.676	2740.97
995.972	2762.67
996.268	2669.79
996.565	2682.9
996.861	2667.75
997.157	2679.05
997.453	2675.89
997.749	2593.63
998.044	2593.18
998.34	2628.43
998.636	2556.35
998.932	2594.99
999.227	2558.15
999.523	2537.81
999.818	2527.87
1000.114	2555.67
1000.409	2504.14
1000.704	2533.29
1001	2467.76
1001.295	2493.75
1001.59	2440.19
1001.885	2470.25
1002.18	2429.57
1002.475	2425.28
1002.77	2399.51
1003.065	2399.97
1003.359	2379.85
1003.654	2359.29
1003.949	2349.8
1004.243	2354.09
1004.538	2341.44
1004.832	2335.11
1005.127	2307.76
1005.421	2294.43
1005.715	2315
1006.009	2295.34
1006.304	2248.1
1006.598	2262.12
1006.892	2250.82
1007.186	2232.51
1007.48	2204.26
1007.773	2218.95
1008.067	2174.66
1008.361	2166.75
1008.655	2161.1
1008.948	2138.96
1009.242	2136.47
1009.535	2138.73
1009.829	2161.78
1010.122	2096.92
1010.415	2088.33
1010.708	2072.97
1011.001	2071.39
1011.295	2081.78
1011.588	2024.38
1011.881	2033.65
1012.173	2009.47
1012.466	1966.08
1012.759	2000.43
1013.052	1991.61
1013.344	1984.61
1013.637	1950.26
1013.93	1937.38
1014.222	1935.34
1014.514	1926.98
1014.807	1903.03
1015.099	1899.87
1015.391	1872.75
1015.683	1861.9
1015.976	1893.76
1016.268	1867.55
1016.56	1850.83
1016.851	1839.08
1017.143	1837.27
1017.435	1796.14
1017.727	1815.12
1018.018	1801.11
1018.31	1790.72
1018.602	1749.36
1018.893	1752.52
1019.185	1756.82
1019.476	1732.86
1019.767	1718.63
1020.058	1706.88
1020.35	1682.47
1020.641	1675.69
1020.932	1677.72
1021.223	1682.02
1021.514	1663.71
1021.804	1649.48
1022.095	1621.45
1022.386	1642.92
1022.677	1615.8
1022.967	1600.89
1023.258	1602.02
1023.548	1580.33
1023.839	1579.87
1024.129	1584.39
1024.419	1545.52
1024.709	1545.52
1025	1527.22
1025.29	1498.29
1025.58	1508.01
1025.87	1507.33
1026.16	1489.48
1026.449	1476.15
1026.739	1472.08
1027.029	1460.55
1027.319	1417.84
1027.608	1451.97
1027.898	1435.47
1028.187	1439.99
1028.477	1420.33
1028.766	1413.55
1029.055	1394.34
1029.344	1397.96
1029.634	1377.17
1029.923	1370.84
1030.212	1345.98
1030.501	1369.26
1030.79	1343.95
1031.078	1344.85
1031.367	1327.45
1031.656	1319.77
1031.945	1305.98
1032.233	1285.64
1032.522	1303.95
1032.81	1279.99
1033.099	1290.16
1033.387	1263.05
1033.675	1282.48
1033.963	1252.42
1034.251	1266.89
1034.54	1221.47
1034.828	1227.34
1035.116	1217.17
1035.403	1225.08
1035.691	1195.03
1035.979	1195.03
1036.267	1173.56
1036.554	1169.04
1036.842	1180.11
1037.129	1159.77
1037.417	1153.44
1037.704	1191.86
1037.992	1131.3
1038.279	1141.02
1038.566	1135.82
1038.853	1135.82
1039.14	1135.82
