Data from 583_FLMS001491_003.txt Node
Date: Thu Apr 19 15:43:21 BST 2018
User: hsy
Spectrometer: FLMS00149
Trigger mode: 0
Integration Time (sec): 1.000000E-2
Scans to average: 10
Electric dark correction enabled: true
Nonlinearity correction enabled: false
Boxcar width: 0
XAxis mode: Wavelengths
Number of Pixels in Spectrum: 2048
>>>>>Begin Spectral Data<<<<<
341.393	1.95
341.776	1.95
342.16	1.95
342.543	-59.07
342.927	-64.94
343.31	-74.66
343.693	-75.56
344.077	-40.99
344.46	-60.42
344.843	-47.99
345.226	-41.67
345.61	-24.26
345.993	-38.28
346.376	-22.01
346.759	-6.41
347.142	31.78
347.525	34.49
347.908	53.7
348.291	84.66
348.674	112.23
349.057	115.39
349.44	134.83
349.823	151.32
350.206	167.82
350.588	229.29
350.971	253.02
351.354	257.99
351.737	271.32
352.119	269.51
352.502	281.04
352.884	289.85
353.267	311.32
353.65	326.46
354.032	331.66
354.414	335.5
354.797	344.54
355.179	359.91
355.562	339.79
355.944	365.1
356.326	368.72
356.709	380.92
357.091	342.51
357.473	391.09
357.855	339.34
358.238	386.57
358.62	378.21
359.002	378.66
359.384	374.14
359.766	377.53
360.148	379.57
360.53	381.15
360.912	381.83
361.294	361.94
361.676	403.75
362.057	367.14
362.439	363.52
362.821	375.27
363.203	365.56
363.584	387.02
363.966	362.17
364.348	377.08
364.729	351.32
365.111	356.06
365.493	369.62
365.874	335.95
366.256	370.08
366.637	359
367.019	353.58
367.4	380.47
367.781	368.95
368.163	359
368.544	321.26
368.925	365.33
369.306	359.45
369.688	370.08
370.069	375.5
370.45	393.35
370.831	357.65
371.212	356.06
371.593	369.85
371.974	384.99
372.355	376.4
372.736	355.84
373.117	377.76
373.498	386.12
373.879	378.44
374.26	388.15
374.641	363.3
375.021	373.01
375.402	368.72
375.783	412.11
376.163	398.1
376.544	386.8
376.925	400.81
377.305	397.19
377.686	370.98
378.066	397.19
378.447	401.49
378.827	413.46
379.208	403.75
379.588	394.03
379.968	427.47
380.349	408.72
380.729	405.78
381.109	396.74
381.489	408.04
381.87	427.7
382.25	400.36
382.63	408.94
383.01	425.44
383.39	434.71
383.77	411.2
384.15	416.18
384.53	432.22
384.91	434.25
385.29	441.49
385.67	414.82
386.049	454.14
386.429	429.73
386.809	441.26
387.189	432.45
387.568	422.28
387.948	444.42
388.328	450.52
388.707	459.11
389.087	441.03
389.466	465.89
389.846	462.05
390.225	467.47
390.605	438.77
390.984	473.12
391.363	460.47
391.743	453.69
392.122	471.77
392.501	451.65
392.881	492.78
393.26	489.39
393.639	480.81
394.018	491.88
394.397	499.34
394.776	475.83
395.155	515.38
395.534	526
395.913	519.45
396.292	504.76
396.671	497.98
397.05	518.55
397.429	508.15
397.808	530.97
398.186	499.11
398.565	533.01
398.944	524.65
399.323	518.55
399.701	544.76
400.08	523.29
400.458	519.68
400.837	531.2
401.215	545.66
401.594	547.25
401.972	551.99
402.351	556.28
402.729	577.98
403.107	551.77
403.486	544.53
403.864	539.11
404.242	589.05
404.62	578.66
404.999	571.2
405.377	593.35
405.755	582.27
406.133	590.63
406.511	559.45
406.889	605.55
407.267	615.04
407.645	606
408.023	610.07
408.401	610.52
408.779	636.96
409.156	623.18
409.534	634.25
409.912	637.64
410.29	659.78
410.667	640.12
411.045	659.78
411.422	661.82
411.8	684.19
412.178	685.09
412.555	688.03
412.933	704.3
413.31	691.42
413.687	722.83
414.065	714.47
414.442	683.74
414.819	705.43
415.197	723.74
415.574	748.82
415.951	731.65
416.328	767.35
416.705	709.95
417.082	753.12
417.46	740.69
417.837	756.28
418.214	756.73
418.591	778.65
418.967	781.82
419.344	789.5
419.721	794.24
420.098	789.72
420.475	787.24
420.852	789.05
421.228	808.26
421.605	822.49
421.982	808.03
422.358	835.37
422.735	803.06
423.111	824.53
423.488	828.14
423.864	837.41
424.241	887.12
424.617	858.42
424.994	875.37
425.37	871.08
425.746	871.76
426.123	888.71
426.499	902.94
426.875	897.97
427.251	904.52
427.627	915.82
428.003	929.38
428.379	948.82
428.756	934.58
429.132	929.38
429.507	962.6
429.883	986.56
430.259	982.94
430.635	986.56
431.011	986.1
431.387	997.18
431.763	1017.74
432.138	1023.62
432.514	1058.64
432.89	1067.01
433.265	1062.94
433.641	1074.01
434.016	1078.98
434.392	1094.35
434.767	1092.09
435.143	1110.39
435.518	1107.23
435.894	1124.18
436.269	1120.56
436.644	1135.25
437.02	1167.12
437.395	1163.27
437.77	1191.97
438.145	1201.69
438.52	1196.04
438.895	1200.79
439.271	1215.25
439.646	1235.81
440.021	1253.67
440.395	1247.79
440.77	1241.01
441.145	1241.46
441.52	1267.23
441.895	1274.01
442.27	1300.9
442.645	1279.66
443.019	1314.68
443.394	1299.09
443.769	1307.68
444.143	1289.37
444.518	1329.37
444.892	1320.11
445.267	1313.33
445.641	1336.6
446.016	1346.55
446.39	1351.07
446.764	1366.88
447.139	1355.13
447.513	1391.97
447.887	1393.78
448.262	1373.44
448.636	1384.29
449.01	1412.99
449.384	1423.61
449.758	1449.82
450.132	1427.22
450.506	1430.16
450.88	1478.52
451.254	1460.22
451.628	1505.41
452.002	1514
452.376	1547.9
452.75	1566.43
453.123	1529.59
453.497	1579.99
453.871	1592.64
454.244	1596.94
454.618	1646.65
454.992	1636.03
455.365	1640.55
455.739	1694.56
456.112	1732.07
456.486	1720.77
456.859	1732.3
457.232	1754.22
457.606	1801
457.979	1821.79
458.352	1789.92
458.725	1817.49
459.099	1858.62
459.472	1881.9
459.845	1894.33
460.218	1919.64
460.591	1927.55
460.964	1969.58
461.337	1963.93
461.71	2009.35
462.083	2044.61
462.456	2067.21
462.829	2070.14
463.201	2099.75
463.574	2088.22
463.947	2135.9
464.32	2164.15
464.692	2181.78
465.065	2217.94
465.438	2249.35
465.81	2254.09
466.183	2225.39
466.555	2322.11
466.928	2351.72
467.3	2360.31
467.672	2367.99
468.045	2418.83
468.417	2385.39
468.789	2450.47
469.161	2467.87
469.534	2500.19
469.906	2557.59
470.278	2577.93
470.65	2638.26
471.022	2631.94
471.394	2676.46
471.766	2681.65
472.138	2751.26
472.51	2818.6
472.882	2839.61
473.253	2848.43
473.625	2883.23
473.997	2964.81
474.369	2989.44
474.74	2985.6
475.112	3044.35
475.484	3099.72
475.855	3173.84
476.227	3176.55
476.598	3279.6
476.97	3264.69
477.341	3353.27
477.713	3442.08
478.084	3471.46
478.455	3556.66
478.827	3561.18
479.198	3694.96
479.569	3732.25
479.94	3833.49
480.311	3894.95
480.682	3923.65
481.053	4050.66
481.424	4106.93
481.795	4146.7
482.166	4231.67
482.537	4303.08
482.908	4443.87
483.279	4471.21
483.65	4546.69
484.021	4659
484.391	4793.24
484.762	4849.05
485.133	4867.13
485.503	4975.15
485.874	5132.21
486.244	5223.96
486.615	5325.88
486.985	5362.26
487.356	5483.39
487.726	5620.78
488.097	5712.99
488.467	5808.35
488.837	6003.15
489.207	6063.71
489.578	6236.59
489.948	6335.34
490.318	6503.47
490.688	6546.64
491.058	6694.65
491.428	6864.37
491.798	6910.47
492.168	7193.85
492.538	7291.25
492.908	7425.26
493.278	7554.74
493.648	7674.52
494.017	7802.87
494.387	8004
494.757	8148.85
495.126	8314.27
495.496	8437.21
495.866	8611.89
496.235	8735.5
496.605	8980.92
496.974	9095.27
497.344	9282.38
497.713	9471.08
498.082	9655.71
498.452	9775.03
498.821	9992.87
499.19	10074.23
499.559	10324.39
499.928	10537.49
500.298	10697.71
500.667	10948.1
501.036	11121.43
501.405	11362.1
501.774	11423.34
502.143	11706.5
502.512	11942.2
502.88	12197.33
503.249	12351.45
503.618	12619.02
503.987	12730.65
504.356	12970.42
504.724	13170.64
505.093	13391.43
505.462	13528.6
505.83	13843.39
506.199	14009.49
506.567	14404.51
506.936	14501.45
507.304	14772.41
507.672	14975.57
508.041	15117.26
508.409	15411.26
508.777	15664.14
509.145	15903.68
509.514	16046.05
509.882	16327.85
510.25	16478.35
510.618	16809.19
510.986	16863.43
511.354	17199.01
511.722	17450.08
512.09	17613.46
512.458	17654.82
512.826	18063.4
513.193	18234.46
513.561	18408.02
513.929	18590.39
514.297	18846.65
514.664	19027.21
515.032	19222.01
515.4	19452.51
515.767	19615.44
516.135	19842.33
516.502	19876.68
516.869	20266.73
517.237	20458.13
517.604	20474.18
517.972	20857.9
518.339	20965.47
518.706	21207.72
519.073	21234.16
519.44	21557.54
519.808	21720.02
520.175	21940.81
520.542	22087.24
520.909	22331.53
521.276	22472.09
521.643	22682.93
522.009	22839.99
522.376	23079.31
522.743	23250.83
523.11	23584.15
523.477	23771.72
523.843	23960.64
524.21	24338.03
524.577	24495.77
524.943	24591.81
525.31	24718.59
525.676	24954.29
526.043	25236.31
526.409	25363.09
526.776	25615.51
527.142	25638.34
527.508	25848.73
527.874	26183.86
528.241	26286.46
528.607	26426.79
528.973	26839.89
529.339	26777.29
529.705	27102.93
530.071	27272.87
530.437	27422.25
530.803	27497.72
531.169	27768.9
531.535	27772.29
531.901	27934.32
532.267	28065.17
532.632	28251.83
532.998	28452.27
533.364	28603.91
533.73	28611.82
534.095	28839.38
534.461	28867.4
534.826	29036.89
535.192	29139.26
535.557	29374.28
535.923	29225.14
536.288	29395.75
536.653	29615.41
537.019	29671.23
537.384	29565.24
537.749	29597.33
538.114	29883.42
538.479	29799.36
538.845	29999.8
539.21	29913.03
539.575	30125.45
539.94	30192.57
540.305	30441.83
540.67	30252.23
541.034	30415.84
541.399	30546
541.764	30498.32
542.129	30561.6
542.494	30674.36
542.858	30830.52
543.223	30789.84
543.587	30895.6
543.952	30887.46
544.316	31051.08
544.681	30906.9
545.045	31203.61
545.41	31261.92
545.774	31306.66
546.138	31259.88
546.503	31476.15
546.867	31398.19
547.231	31538.3
547.595	31528.8
547.959	31626.88
548.324	31620.33
548.688	31738.06
549.052	31876.59
549.416	31818.51
549.779	31832.07
550.143	31889.47
550.507	32001.33
550.871	32131.5
551.235	32199.29
551.599	32420.98
551.962	32361.55
552.326	32435.67
552.689	32473.19
553.053	32287.65
553.417	32610.36
553.78	32844.02
554.143	32846.28
554.507	32913.85
554.87	33027.07
555.234	33175.09
555.597	33013.06
555.96	33213.05
556.323	33206.5
556.686	33225.71
557.05	33590.67
557.413	33530.56
557.776	33539.82
558.139	33738.92
558.502	33765.13
558.865	33844.68
559.228	34097.32
559.59	34070.66
559.953	34073.6
560.316	34550.87
560.679	34533.92
561.041	34751.77
561.404	34731.43
561.767	34935.27
562.129	34803.52
562.492	35117.41
562.854	35025.43
563.217	35255.26
563.579	35245.32
563.941	35447.8
564.304	35698.19
564.666	35804.85
565.028	35832.87
565.39	35891.85
565.753	36187.44
566.115	36079.87
566.477	36241.67
566.839	36466.98
567.201	36665.17
567.563	36630.36
567.925	36812.28
568.287	36885.95
568.648	36978.83
569.01	37120.52
569.372	37424.24
569.734	37309.67
570.095	37612.71
570.457	37747.62
570.819	37784.91
571.18	37556.22
571.542	37993.04
571.903	38028.07
572.265	38219.93
572.626	38281.39
572.987	38239.36
573.349	38403.65
573.71	38583.99
574.071	38605.23
574.432	38842.74
574.794	39000.7
575.155	39056.52
575.516	38916.86
575.877	39086.35
576.238	39217.19
576.599	39200.69
576.96	39226.91
577.32	39347.13
577.681	39398.2
578.042	39674.35
578.403	39713.9
578.763	39493.79
579.124	39545.99
579.485	39677.97
579.845	39758.87
580.206	39591.87
580.566	39774.69
580.927	39737.85
581.287	39998.19
581.648	39703.5
582.008	39860.79
582.368	39952.99
582.728	40072.08
583.089	40023.5
583.449	39905.76
583.809	39942.59
584.169	40004.06
584.529	39904.4
584.889	40199.08
585.249	39949.83
585.609	39813.56
585.969	40023.72
586.329	39889.26
586.688	39972.42
587.048	39789.6
587.408	39807.91
587.768	39867.12
588.127	39948.92
588.487	39855.59
588.846	40041.12
589.206	39689.72
589.565	39930.39
589.925	39942.82
590.284	39757.97
590.643	39877.96
591.003	39856.04
591.362	40017.62
591.721	39899.66
592.08	39837.06
592.44	40008.81
592.799	39914.57
593.158	39861.01
593.517	39706.44
593.876	39865.08
594.235	39708.7
594.593	39911.41
594.952	39814.91
595.311	39794.58
595.67	39852.43
596.029	40030.28
596.387	40129.71
596.746	40069.37
597.104	39866.66
597.463	39915.02
597.822	40108.92
598.18	39815.37
598.538	39793.67
598.897	40116.37
599.255	39846.33
599.613	40355.46
599.972	40021.46
600.33	40086.32
600.688	39993.89
601.046	40221.23
601.404	40343.71
601.762	40331.28
602.12	40394.33
602.478	40360.21
602.836	40474.78
603.194	40102.82
603.552	40333.54
603.91	40268.91
604.268	40446.99
604.625	40272.3
604.983	40676.81
605.341	40270.95
605.698	40727.66
606.056	40797.71
606.413	40639.52
606.771	40871.38
607.128	40832.51
607.485	40690.82
607.843	40773.08
608.2	40937.14
608.557	40988.67
608.914	40917.26
609.272	41134.88
609.629	41236.12
609.986	41389.11
610.343	41155.22
610.7	41434.98
611.057	41409
611.414	41403.12
611.771	41518.6
612.127	41539.84
612.484	41628.43
612.841	41642.44
613.198	41595.43
613.554	41647.41
613.911	41847.63
614.267	41832.71
614.624	41766.95
614.98	42105.02
615.337	42221.4
615.693	42098.02
616.05	42117
616.406	42312.02
616.762	42198.13
617.118	42252.59
617.475	42355.64
617.831	42436.77
618.187	42503.2
618.543	42541.62
618.899	42784.33
619.255	42728.51
619.611	42710.66
619.967	42748.85
620.323	42927.83
620.678	42670.88
621.034	42677.66
621.39	42611.22
621.746	42760.37
622.101	43077.2
622.457	42817.09
622.812	43014.6
623.168	43061.83
623.523	42929.18
623.879	43109.52
624.234	42971.21
624.589	43015.06
624.945	43130.98
625.3	43179.57
625.655	43172.57
626.01	43122.62
626.365	43228.38
626.72	43043.76
627.075	43063.42
627.43	43137.31
627.785	43121.27
628.14	43087.14
628.495	43121.95
628.85	43111.78
629.205	43010.54
629.559	43132.34
629.914	42967.83
630.269	43059.35
630.623	42819.81
630.978	42684.89
631.332	42980.93
631.687	43041.04
632.041	42806.25
632.396	42806.93
632.75	42707.72
633.104	42808.28
633.459	42492.13
633.813	42585.24
634.167	42544.33
634.521	42620.72
634.875	42560.15
635.229	42456.43
635.583	42536.88
635.937	42327.16
636.291	42334.62
636.645	42290.78
636.999	42113.38
637.352	42353.6
637.706	42092.14
638.06	42293.94
638.413	41978.25
638.767	41946.83
639.121	41906.84
639.474	41788.87
639.828	41819.61
640.181	41746.16
640.534	41856.67
640.888	41709.33
641.241	41562.44
641.594	41652.15
641.947	41837.46
642.301	41557.92
642.654	41713.39
643.007	41528.54
643.36	41584.13
643.713	41415.1
644.066	41783
644.419	41294.42
644.771	40936.24
645.124	40571.96
645.477	40578.96
645.83	40436.14
646.182	40507.1
646.535	40277.5
646.888	40481.34
647.24	40403.37
647.593	40586.64
647.945	40461.9
648.298	40395.24
648.65	40175.58
649.002	39961.12
649.355	39807.46
649.707	39600
650.059	39672.09
650.411	40285.18
650.763	40501.22
651.115	41023.02
651.467	40885.62
651.819	40882
652.171	40731.05
652.523	40679.75
652.875	40715.91
653.227	40755
653.578	40997.03
653.93	40848.78
654.282	40678.62
654.633	40501.45
654.985	40635
655.337	40710.26
655.688	40623.93
656.039	40849.01
656.391	40438.85
656.742	40676.36
657.094	40550.94
657.445	40611.95
657.796	40648.56
658.147	40491.96
658.498	40610.37
658.849	40760.88
659.2	40621.9
659.551	40480.88
659.902	40736.47
660.253	40558.17
660.604	40729.47
660.955	40548.45
661.306	40659.64
661.656	40581.9
662.007	40632.07
662.358	40722.23
662.708	40783.93
663.059	40724.72
663.409	40489.25
663.76	40611.95
664.11	40760.65
664.461	40782.57
664.811	40793.64
665.161	40695.79
665.511	40643.14
665.862	40755.68
666.212	40832.06
666.562	40773.31
666.912	40814.44
667.262	40773.31
667.612	40703.93
667.962	40788.45
668.312	40671.39
668.662	40966.52
669.011	40848.33
669.361	40703.25
669.711	40769.01
670.06	40684.72
670.41	40638.85
670.76	40665.51
671.109	40755.23
671.459	40687.88
671.808	40578.96
672.157	40718.84
672.507	40468.91
672.856	40391.4
673.205	40567.66
673.554	40571.5
673.904	40432.07
674.253	40667.77
674.602	40380.32
674.951	39976.27
675.3	39645.65
675.649	40505.74
675.998	40387.33
676.346	40411.51
676.695	40460.55
677.044	40085.87
677.393	40399.76
677.741	40284.51
678.09	40362.92
678.438	40014.23
678.787	40275.92
679.135	40202.47
679.484	39948.02
679.832	40159.99
680.181	39973.78
680.529	39859.66
680.877	39876.15
681.225	39852.43
681.573	39973.1
681.922	39723.84
682.27	39582.6
682.618	39850.84
682.966	39543.96
683.314	39665.54
683.661	39488.37
684.009	39254.7
684.357	39239.56
684.705	39155.5
685.053	39322.27
685.4	38937.42
685.748	38967.93
686.095	39003.18
686.443	38777.2
686.79	38726.13
687.138	38901.27
687.485	38762.51
687.832	38498.34
688.18	38570.43
688.527	38454.95
688.874	38363.43
689.221	38197.78
689.568	37979.93
689.915	38034.62
690.262	38055.19
690.609	37915.3
690.956	37755.98
691.303	37829.43
691.65	37538.82
691.997	37587.85
692.344	37350.12
692.69	37214.98
693.037	37255.21
693.383	36792.62
693.73	36892.5
694.077	36677.14
694.423	36659.29
694.769	36590.82
695.116	36433.08
695.462	36238.96
695.808	36131.85
696.155	36199.87
696.501	35917.84
696.847	35887.56
697.193	35701.12
697.539	35634.01
697.885	35482.6
698.231	35267.69
698.577	35267.46
698.923	35157.63
699.269	34944.99
699.614	34893.46
699.96	34826.34
700.306	34792.9
700.651	34532.79
700.997	34500.48
701.342	34409.18
701.688	34315.85
702.033	34140.03
702.379	34040.83
702.724	33906.82
703.069	33914.96
703.415	33579.82
703.76	33467.06
704.105	33584.79
704.45	33485.36
704.795	33232.71
705.14	33108.65
705.485	33191.81
705.83	32929.22
706.175	33078.82
706.52	32828.43
706.865	32701.88
707.209	32569.68
707.554	32423.47
707.899	32554.31
708.243	32287.88
708.588	32211.05
708.932	32100.77
709.277	32058.28
709.621	31954.1
709.966	31825.52
710.31	31917.27
710.654	31536.71
710.998	31662.36
711.342	31821.45
711.687	31483.16
712.031	31394.34
712.375	31298.75
712.719	31306.89
713.063	31176.27
713.407	31437.05
713.75	31032.77
714.094	31013.34
714.438	30972.21
714.782	31017.18
715.125	30804.53
715.469	31051.08
715.812	30697.19
716.156	30612.44
716.499	30661.93
716.843	30773.34
717.186	30407.48
717.53	30690.63
717.873	30630.97
718.216	30511.88
718.559	30453.8
718.902	30242.74
719.246	30318.89
719.589	30111.67
719.932	30161.16
720.275	30192.12
720.617	30120.03
720.96	30031.67
721.303	30077.99
721.646	29963.65
721.989	29950.09
722.331	30052.68
722.674	29882.52
723.016	29797.78
723.359	29863.54
723.701	29861.28
724.044	29768.17
724.386	29682.52
724.729	29860.15
725.071	29772.01
725.413	29747.38
725.755	29661.51
726.097	29610.44
726.439	29586.93
726.782	29559.36
727.124	29674.62
727.465	29567.73
727.807	29478.24
728.149	29523.88
728.491	29541.96
728.833	29614.73
729.175	29618.57
729.516	29447.05
729.858	29375.41
730.199	29514.85
730.541	29465.36
730.882	29361.63
731.224	29541.29
731.565	29367.05
731.906	29485.02
732.248	29623.32
732.589	29343.1
732.93	29316.88
733.271	29381.52
733.612	29412.7
733.953	29501.96
734.294	29282.31
734.635	29251.58
734.976	29508.97
735.317	29378.8
735.658	29453.38
735.999	29312.59
736.339	29372.7
736.68	29383.78
737.021	29507.39
737.361	29442.08
737.702	29605.69
738.042	29555.07
738.383	29618.8
738.723	29703.32
739.063	29505.35
739.404	29731.56
739.744	29635.52
740.084	29404.34
740.424	29705.8
740.764	29646.59
741.104	29855.4
741.444	29696.08
741.784	29638.68
742.124	29729.53
742.464	29695.63
742.804	29762.07
743.143	29762.52
743.483	29958.22
743.823	29739.02
744.162	29944.44
744.502	29985.12
744.841	29856.53
745.181	30258.1
745.52	30124.09
745.86	30110.31
746.199	30085.45
746.538	30175.84
746.877	30474.37
747.216	30345.33
747.556	30333.81
747.895	30519.79
748.234	30473.46
748.573	30644.53
748.911	30643.4
749.25	30638.43
749.589	30527.25
749.928	30780.57
750.267	30956.84
750.605	30908.48
750.944	30995.26
751.283	31098.31
751.621	31092.21
751.96	31102.6
752.298	31112.77
752.636	31362.71
752.975	31261.69
753.313	31298.75
753.651	31632.98
753.989	31530.16
754.327	31623.72
754.666	31476.6
755.004	31745.75
755.342	31846.99
755.679	31920.21
756.017	31761.57
756.355	32083.82
756.693	32060.99
757.031	32243.81
757.368	32047.66
757.706	32101.44
758.044	32016.47
758.381	32149.58
758.719	32180.31
759.056	32277.26
759.394	32251.95
759.731	32169.01
760.068	32380.31
760.405	32356.58
760.743	32336.47
761.08	32364.71
761.417	32395
761.754	32255.34
762.091	32410.36
762.428	32278.39
762.765	32373.75
763.102	32315.22
763.438	32235.9
763.775	32311.38
764.112	32219.41
764.449	32365.17
764.785	32376.47
765.122	32223.02
765.458	32220.54
765.795	32126.75
766.131	32263.7
766.467	32155.45
766.804	32096.47
767.14	31936.7
767.476	31886.53
767.812	31942.8
768.148	31969.02
768.485	31887.66
768.821	31567.9
769.157	31682.02
769.492	31790.72
769.828	31652.87
770.164	31478.86
770.5	31335.81
770.836	31541.23
771.171	31302.14
771.507	31262.82
771.842	31200
772.178	31078.42
772.513	31194.12
772.849	30863.74
773.184	30918.2
773.519	30918.42
773.855	30652.22
774.19	30672.1
774.525	30553.91
774.86	30513.46
775.195	30470.98
775.53	30326.12
775.865	30256.97
776.2	30246.58
776.535	29984.66
776.87	30073.02
777.205	29882.07
777.539	29709.19
777.874	29817.21
778.209	29447.73
778.543	29601.85
778.878	29228.75
779.212	29365.02
779.547	29151.24
779.881	29200.96
780.215	28908.53
780.55	29113.05
780.884	28892.71
781.218	28787.86
781.552	28868.08
781.886	28710.35
782.22	28428.55
782.554	28474.19
782.888	28266.74
783.222	28144.03
783.556	28073.98
783.889	27946.53
784.223	27802.12
784.557	27807.77
784.89	27802.8
785.224	27623.14
785.557	27476.71
785.891	27423.15
786.224	27398.97
786.558	27371.4
786.891	27176.6
787.224	27097.73
787.557	27062.25
787.891	26879.43
788.224	26778.87
788.557	26747.69
788.89	26669.95
789.223	26623.17
789.556	26448.03
789.888	26339.34
790.221	26322.61
790.554	26164.88
790.887	26190.64
791.219	26028.84
791.552	26038.78
791.884	25874.94
792.217	25856.86
792.549	25763.76
792.882	25535.74
793.214	25490.32
793.546	25470.43
793.879	25399.47
794.211	25208.97
794.543	25304.33
794.875	25294.62
795.207	25191.34
795.539	25020.95
795.871	25038.35
796.203	24973.95
796.535	24788.64
796.867	24795.65
797.198	24675.2
797.53	24606.73
797.862	24413.96
798.193	24481.98
798.525	24321.54
798.856	24466.62
799.188	24186.62
799.519	24046.97
799.85	23947.99
800.182	23915.44
800.513	23986.63
800.844	23655.34
801.175	23932.62
801.506	23751.38
801.837	23714.32
802.168	23662.12
802.499	23635
802.83	23445.63
803.161	23371.05
803.491	23341.22
803.822	23387.77
804.153	23187.55
804.483	23033.43
804.814	23012.87
805.145	23041.8
805.475	23052.64
805.805	22836.83
806.136	22795.93
806.466	22849.26
806.796	22750.73
807.126	22562.71
807.457	22572.88
807.787	22578.53
808.117	22547.34
808.447	22319.78
808.777	22461.92
809.107	22236.84
809.436	22142.38
809.766	22235.04
810.096	22129.73
810.426	22040.47
810.755	22103.29
811.085	21981.26
811.414	22004.76
811.744	21894.48
812.073	21874.82
812.403	21750.98
812.732	21661.04
813.061	21816.06
813.39	21490.88
813.719	21585.34
814.049	21640.7
814.378	21555.05
814.707	21375.4
815.036	21399.58
815.365	21169.53
815.693	21221.96
816.022	21247.72
816.351	21120.26
816.68	21053.6
817.008	21089.08
817.337	20973.83
817.665	20896.31
817.994	20924.34
818.322	20979.48
818.651	20906.03
818.979	20825.13
819.307	20814.06
819.636	20754.85
819.964	20715.53
820.292	20711.24
820.62	20626.49
820.948	20750.78
821.276	20866.26
821.604	20731.12
821.932	20813.61
822.259	20721.4
822.587	20721.18
822.915	20659.94
823.243	20683.21
823.57	20592.82
823.898	20707.85
824.225	20617.23
824.553	20535.87
824.88	20807.96
825.207	20704.68
825.535	20574.06
825.862	20706.04
826.189	20612.48
826.516	20680.95
826.843	20665.36
827.17	20791.91
827.497	20742.65
827.824	20784.91
828.151	20698.58
828.478	20654.29
828.805	20845.69
829.131	20744.68
829.458	20650.45
829.785	20596.44
830.111	20675.98
830.438	20709.65
830.764	20611.8
831.09	20765.47
831.417	20555.76
831.743	20700.39
832.069	20649.99
832.395	20611.12
832.722	20577.68
833.048	20607.06
833.374	20656.55
833.7	20586.72
834.026	20587.85
834.351	20597.34
834.677	20651.8
835.003	20534.74
835.329	20506.27
835.654	20455.2
835.98	20365.26
836.306	20503.78
836.631	20392.37
836.956	20380.17
837.282	20472.6
837.607	20294.07
837.932	20313.96
838.258	20238.48
838.583	20246.84
838.908	20214.98
839.233	20270.79
839.558	20127.07
839.883	20076.45
840.208	20015.66
840.533	20105.83
840.858	20039.16
841.182	20121.19
841.507	20067.18
841.832	19935.21
842.156	19882.1
842.481	19789
842.805	19912.61
843.13	19728.66
843.454	19785.84
843.778	19628.33
844.103	19734.09
844.427	19616.12
844.751	19655.22
845.075	19626.29
845.399	19547.88
845.723	19388.56
846.047	19453.87
846.371	19249.35
846.695	19215.23
847.019	19182.01
847.343	19110.15
847.666	18922.36
847.99	18919.42
848.313	18899.53
848.637	18751.74
848.96	18746.99
849.284	18675.58
849.607	18530.28
849.931	18512.87
850.254	18376.16
850.577	18331.18
850.9	18242.6
851.223	18197.85
851.546	18118.99
851.869	18024.53
852.192	18174.58
852.515	17937.52
852.838	17886.9
853.161	17811.2
853.483	17688.72
853.806	17683.74
854.129	17688.26
854.451	17647.81
854.774	17544.31
855.096	17486.01
855.419	17335.5
855.741	17452.34
856.063	17353.81
856.385	17363.3
856.708	17173.7
857.03	17125.34
857.352	17036.53
857.674	17071.78
857.996	16956.76
858.318	16793.82
858.64	16869.3
858.961	16815.07
859.283	16735.97
859.605	16703.43
859.926	16747.72
860.248	16727.61
860.57	16624.79
860.891	16670.89
861.212	16466.83
861.534	16386.6
861.855	16406.49
862.176	16422.31
862.498	16356.1
862.819	16429.54
863.14	16183.22
863.461	16256.44
863.782	16253.27
864.103	16256.44
864.424	16227.29
864.745	16239.71
865.065	16126.04
865.386	15971.02
865.707	16074.52
866.027	16057.57
866.348	16035.65
866.668	16002.21
866.989	15976.9
867.309	15800.4
867.63	15832.72
867.95	15962.89
868.27	15812.83
868.59	15816.9
868.91	15768.54
869.23	15771.48
869.55	15721.76
869.87	15739.16
870.19	15648.32
870.51	15622.33
870.83	15585.95
871.15	15616.68
871.469	15516.57
871.789	15558.38
872.109	15605.15
872.428	15418.27
872.748	15571.26
873.067	15482.67
873.386	15434.09
873.706	15430.02
874.025	15462.33
874.344	15246.29
874.663	15312.96
874.982	15350.92
875.301	15265.28
875.62	15261.43
875.939	15171.49
876.258	15235.9
876.577	15105.73
876.896	15190.48
877.214	15093.08
877.533	15062.12
877.852	15070.71
878.17	15054.43
878.489	15000.65
878.807	14959.07
879.125	14847.21
879.444	14883.82
879.762	14907.32
880.08	14946.41
880.398	14733.99
880.716	14848.11
881.034	14828.9
881.352	14800.66
881.67	14805.85
881.988	14742.35
882.306	14663.03
882.624	14694.67
882.941	14572.19
883.259	14649.02
883.577	14571.06
883.894	14607.89
884.212	14509.82
884.529	14492.42
884.846	14449.7
885.164	14406.99
885.481	14320.44
885.798	14400.89
886.115	14345.53
886.432	14292.65
886.75	14411.06
887.067	14305.75
887.383	14138.53
887.7	14249.03
888.017	13991.41
888.334	14111.86
888.651	13965.42
888.967	14000.68
889.284	13932.88
889.6	13860.34
889.917	13873.67
890.233	13958.42
890.55	13817.18
890.866	13841.81
891.182	13787.12
891.498	13708.03
891.815	13579.67
892.131	13684.75
892.447	13608.82
892.763	13533.57
893.079	13519.56
893.395	13475.49
893.71	13437.53
894.026	13408.38
894.342	13295.84
894.657	13300.58
894.973	13184.43
895.289	13214.03
895.604	13100.36
895.92	13146.91
896.235	13087.03
896.55	13130.19
896.865	13065.33
897.181	13034.83
897.496	13001.83
897.811	12908.73
898.126	12860.14
898.441	12820.14
898.756	12759.35
899.071	12718.45
899.386	12754.61
899.7	12604.33
900.015	12587.38
900.33	12438.01
900.644	12424.67
900.959	12503.09
901.273	12384
901.588	12367.05
901.902	12400.72
902.216	12302.42
902.531	12278.46
902.845	12270.33
903.159	12102.2
903.473	12106.26
903.787	11993.05
904.101	11951.47
904.415	11991.92
904.729	11927.51
905.042	11770.23
905.356	11884.8
905.67	11780.17
905.984	11778.36
906.297	11730.23
906.611	11586.05
906.924	11644.35
907.237	11604.81
907.551	11536.11
907.864	11498.14
908.177	11478.26
908.491	11412.72
908.804	11336.34
909.117	11273.07
909.43	11254.31
909.743	11240.98
910.056	11191.94
910.368	11117.36
910.681	11151.03
910.994	11029.46
911.307	10960.08
911.619	10913.53
911.932	10918.95
912.244	10821.78
912.557	10870.14
912.869	10811.38
913.181	10719.18
913.494	10660.2
913.806	10642.12
914.118	10547.21
914.43	10548.56
914.742	10535.46
915.054	10399.19
915.366	10389.25
915.678	10437.61
915.99	10344.05
916.302	10260.66
916.613	10273.09
916.925	10239.42
917.236	10141.12
917.548	10079.65
917.859	10073.55
918.171	9997.39
918.482	10026.09
918.794	9926.66
919.105	9911.97
919.416	9864.97
919.727	9817.51
920.038	9794.01
920.349	9717.85
920.66	9678.98
920.971	9620.68
921.282	9687.34
921.593	9630.4
921.903	9562.83
922.214	9506.78
922.525	9491.42
922.835	9446.45
923.146	9381.14
923.456	9295.04
923.767	9254.14
924.077	9264.53
924.387	9254.36
924.697	9248.03
925.008	9135.49
925.318	9114.93
925.628	9157.19
925.938	9085.78
926.248	8998.77
926.558	8897.08
926.867	8955.16
927.177	8930.08
927.487	8832
927.796	8858.67
928.106	8837.87
928.416	8779.12
928.725	8697.54
929.034	8662.06
929.344	8727.14
929.653	8653.47
929.962	8563.31
930.271	8509.75
930.581	8493.93
930.89	8406.93
931.199	8425.46
931.508	8436.98
931.817	8333.93
932.125	8302.75
932.434	8287.15
932.743	8218.46
933.051	8232.47
933.36	8158.12
933.669	8089.19
933.977	8113.6
934.286	8126.26
934.594	8039.25
934.902	7979.37
935.21	8018.69
935.519	7968.29
935.827	7884.45
936.135	7817.56
936.443	7776.66
936.751	7757.68
937.059	7760.16
937.367	7698.7
937.674	7662.09
937.982	7617.12
938.29	7670.67
938.597	7597.23
938.905	7555.65
939.213	7524.92
939.52	7406.5
939.827	7462.09
940.135	7397.91
940.442	7414.86
940.749	7364.69
941.056	7385.26
941.363	7305.26
941.67	7312.27
941.977	7210.57
942.284	7117.47
942.591	7130.58
942.898	7132.38
943.205	7102.1
943.511	7101.42
943.818	7077.24
944.125	6936.91
944.431	6959.05
944.738	6955.44
945.044	6947.08
945.35	6899.39
945.657	6826.85
945.963	6816.23
946.269	6788.89
946.575	6759.06
946.881	6690.81
947.187	6724.94
947.493	6661.21
947.799	6648.33
948.105	6653.07
948.41	6566.52
948.716	6548.22
949.022	6585.73
949.327	6541.66
949.633	6445.85
949.938	6444.94
950.244	6395.91
950.549	6357.26
950.854	6327.21
951.16	6334.21
951.465	6282.01
951.77	6311.84
952.075	6335.57
952.38	6238.62
952.685	6163.59
952.99	6169.02
953.294	6123.6
953.599	6086.76
953.904	6128.34
954.209	6003.15
954.513	6070.72
954.818	5977.16
955.122	5964.73
955.426	5994.11
955.731	5964.96
956.035	5821.68
956.339	5890.16
956.643	5816.03
956.948	5806.54
957.252	5803.15
957.556	5776.71
957.86	5749.59
958.163	5743.27
958.467	5743.95
958.771	5754.34
959.075	5651.74
959.378	5621.91
959.682	5594.57
959.985	5570.16
960.289	5556.83
960.592	5505.76
960.896	5507.79
961.199	5466.21
961.502	5434.12
961.805	5421.24
962.108	5375.82
962.411	5404.07
962.714	5368.59
963.017	5340.34
963.32	5315.26
963.623	5302.15
963.926	5290.85
964.228	5241.36
964.531	5224.18
964.833	5256.05
965.136	5132.66
965.438	5108.26
965.741	5077.07
966.043	5062.83
966.345	5035.04
966.648	5035.04
966.95	5068.26
967.252	5016.96
967.554	4986
967.856	4951.42
968.158	4937.86
968.46	4910.75
968.761	4927.7
969.063	4926.57
969.365	4836.62
969.666	4827.13
969.968	4790.07
970.269	4789.39
970.571	4772.45
970.872	4741.26
971.174	4727.7
971.475	4717.98
971.776	4689.74
972.077	4689.74
972.378	4635.27
972.679	4614.26
972.98	4658.78
973.281	4570.64
973.582	4562.06
973.883	4557.08
974.183	4475.05
974.484	4490.87
974.785	4497.42
975.085	4455.62
975.386	4481.38
975.686	4406.58
975.986	4405.22
976.287	4386.92
976.587	4342.4
976.887	4312.34
977.187	4304.43
977.487	4336.07
977.787	4321.84
978.087	4249.97
978.387	4261.95
978.687	4249.3
978.987	4232.57
979.286	4234.38
979.586	4218.79
979.885	4133.14
980.185	4116.64
980.484	4090.2
980.784	4099.47
981.083	4066.93
981.382	4050.43
981.682	4034.16
981.981	4053.14
982.28	3999.36
982.579	3977.44
982.878	3974.5
983.177	3937.44
983.475	3926.82
983.774	3897.44
984.073	3886.37
984.372	3908.06
984.67	3864.9
984.969	3840.27
985.267	3843.66
985.566	3836.88
985.864	3795.52
986.162	3777.22
986.461	3739.03
986.759	3739.25
987.057	3698.58
987.355	3678.69
987.653	3694.28
987.951	3619.71
988.249	3608.63
988.547	3601.4
988.844	3626.49
989.142	3622.19
989.44	3589.88
989.737	3603.44
990.035	3538.81
990.332	3532.7
990.63	3543.78
990.927	3515.08
991.224	3490.44
991.521	3442.54
991.819	3454.97
992.116	3422.65
992.413	3423.55
992.71	3434.4
993.006	3410.22
993.303	3367.28
993.6	3374.74
993.897	3350.11
994.193	3351.47
994.49	3289.09
994.787	3294.74
995.083	3258.81
995.379	3258.13
995.676	3255.87
995.972	3235.31
996.268	3206.16
996.565	3191.02
996.861	3191.47
997.157	3150.57
997.453	3120.51
997.749	3103.79
998.044	3050.68
998.34	3104.47
998.636	3104.47
998.932	3056.56
999.227	3013.85
999.523	3050
999.818	2974.98
1000.114	2972.49
1000.409	3013.62
1000.704	2985.6
1001	2961.42
1001.295	2915.77
1001.59	2922.78
1001.885	2890.91
1002.18	2923.23
1002.475	2862.21
1002.77	2857.24
1003.065	2837.58
1003.359	2811.14
1003.654	2796.23
1003.949	2790.8
1004.243	2791.71
1004.538	2748.32
1004.832	2767.98
1005.127	2719.17
1005.421	2695.89
1005.715	2673.07
1006.009	2689.34
1006.304	2684.36
1006.598	2647.76
1006.892	2659.96
1007.186	2596.68
1007.48	2594.42
1007.773	2568.66
1008.067	2570.24
1008.361	2545.84
1008.655	2555.1
1008.948	2577.02
1009.242	2528.44
1009.535	2513.52
1009.829	2467.2
1010.122	2445.05
1010.415	2450.7
1010.708	2440.53
1011.001	2424.26
1011.295	2419.51
1011.588	2405.5
1011.881	2364.15
1012.173	2381.77
1012.466	2354.2
1012.759	2357.14
1013.052	2300.42
1013.344	2318.95
1013.637	2319.4
1013.93	2269.69
1014.222	2286.41
1014.514	2240.99
1014.807	2243.25
1015.099	2225.39
1015.391	2224.49
1015.683	2211.61
1015.976	2175.68
1016.268	2144.94
1016.56	2143.81
1016.851	2126.86
1017.143	2119.18
1017.435	2118.73
1017.727	2078.05
1018.018	2096.36
1018.31	2055
1018.602	2095.45
1018.893	2049.8
1019.185	2038.96
1019.476	2006.64
1019.767	2056.81
1020.058	1997.83
1020.35	1961.45
1020.641	1931.16
1020.932	1977.94
1021.223	1935.46
1021.514	1935.23
1021.804	1921.45
1022.095	1907.66
1022.386	1903.59
1022.677	1890.04
1022.967	1849.81
1023.258	1852.52
1023.548	1846.19
1023.839	1832.86
1024.129	1826.76
1024.419	1808.91
1024.709	1814.1
1025	1767.78
1025.29	1766.2
1025.58	1736.14
1025.87	1752.41
1026.16	1709.02
1026.449	1730.94
1026.739	1699.31
1027.029	1712.41
1027.319	1659.08
1027.608	1669.25
1027.898	1669.02
1028.187	1654.11
1028.477	1640.78
1028.766	1623.83
1029.055	1615.01
1029.344	1602.13
1029.634	1598.52
1029.923	1609.36
1030.212	1589.7
1030.501	1565.07
1030.79	1544.06
1031.078	1541.8
1031.367	1522.81
1031.656	1476.71
1031.945	1470.39
1032.233	1500.89
1032.522	1488.46
1032.81	1482.59
1033.099	1474.45
1033.387	1466.32
1033.675	1472.87
1033.963	1452.31
1034.251	1461.12
1034.54	1411.4
1034.828	1423.61
1035.116	1401.01
1035.403	1384.06
1035.691	1365.08
1035.979	1335.02
1036.267	1369.6
1036.554	1362.37
1036.842	1318.3
1037.129	1324.85
1037.417	1318.3
1037.704	1305.42
1037.992	1312.42
1038.279	1282.59
1038.566	1281.92
1038.853	1281.92
1039.14	1281.92
