Data from 583_FLMS001491_005.txt Node
Date: Thu Apr 19 15:43:26 BST 2018
User: hsy
Spectrometer: FLMS00149
Trigger mode: 0
Integration Time (sec): 1.000000E-2
Scans to average: 10
Electric dark correction enabled: true
Nonlinearity correction enabled: false
Boxcar width: 0
XAxis mode: Wavelengths
Number of Pixels in Spectrum: 2048
>>>>>Begin Spectral Data<<<<<
341.393	-7.51
341.776	-7.51
342.16	-7.51
342.543	-58.59
342.927	-61.3
343.31	-62.65
343.693	-59.04
344.077	-47.74
344.46	-40.06
344.843	-78.92
345.226	-35.54
345.61	-9.1
345.993	-17.91
346.376	-12.71
346.759	18.02
347.142	34.97
347.525	25.93
347.908	38.59
348.291	64.12
348.674	81.52
349.057	100.51
349.44	119.04
349.823	135.99
350.206	164.46
350.588	241.07
350.971	241.07
351.354	265.47
351.737	281.29
352.119	296.21
352.502	286.26
352.884	300.73
353.267	321.52
353.65	344.57
354.032	329.88
354.414	342.76
354.797	367.39
355.179	378.01
355.562	358.58
355.944	373.27
356.326	368.3
356.709	375.07
357.091	381.18
357.473	347.28
357.855	386.37
358.238	380.95
358.62	386.83
359.002	383.89
359.384	395.41
359.766	378.69
360.148	378.92
360.53	393.38
360.912	392.93
361.294	361.74
361.676	374.4
362.057	387.96
362.439	399.48
362.821	377.11
363.203	380.95
363.584	382.76
363.966	380.27
364.348	380.27
364.729	391.35
365.111	380.5
365.493	361.06
365.874	371.46
366.256	380.27
366.637	386.83
367.019	380.5
367.4	372.36
367.781	387.96
368.163	365.81
368.544	365.81
368.925	394.96
369.306	374.62
369.688	367.62
370.069	382.08
370.45	363.55
370.831	369.65
371.212	390.67
371.593	393.61
371.974	377.11
372.355	391.12
372.736	391.8
373.117	404.68
373.498	383.66
373.879	399.03
374.26	399.71
374.641	383.66
375.021	398.35
375.402	396.09
375.783	385.47
376.163	404.9
376.544	393.61
376.925	402.19
377.305	388.18
377.686	419.37
378.066	419.14
378.447	389.09
378.827	389.99
379.208	419.82
379.588	406.94
379.968	422.98
380.349	411.68
380.729	434.06
381.109	440.84
381.489	433.6
381.87	407.16
382.25	413.72
382.63	433.6
383.01	437.22
383.39	436.99
383.77	428.63
384.15	454.85
384.53	461.4
384.91	454.17
385.29	464.34
385.67	437.22
386.049	463.43
386.429	453.26
386.809	487.84
387.189	481.06
387.568	487.16
387.948	459.14
388.328	475.64
388.707	477.9
389.087	494.62
389.466	473.15
389.846	494.39
390.225	490.33
390.605	468.41
390.984	486.48
391.363	505.69
391.743	517.44
392.122	516.77
392.501	510.44
392.881	503.21
393.26	510.66
393.639	513.15
394.018	535.97
394.397	512.47
394.776	510.21
395.155	527.61
395.534	522.19
395.913	539.36
396.292	547.73
396.671	532.13
397.05	582.08
397.429	566.26
397.808	559.93
398.186	569.42
398.565	540.49
398.944	550.44
399.323	560.38
399.701	579.14
400.08	561.74
400.458	561.06
400.837	571.23
401.215	598.35
401.594	578.01
401.972	607.61
402.351	596.99
402.729	615.29
403.107	583.43
403.486	592.47
403.864	618.23
404.242	601.96
404.62	634.05
404.999	644.22
405.377	621.4
405.755	640.6
406.133	652.58
406.511	644.22
406.889	650.1
407.267	662.75
407.645	660.49
408.023	691.45
408.401	675.41
408.779	683.77
409.156	697.78
409.534	710.66
409.912	707.72
410.29	702.75
410.667	721.96
411.045	709.08
411.422	733.03
411.8	720.15
412.178	740.71
412.555	753.14
412.933	749.53
413.31	778.23
413.687	779.81
414.065	791.34
414.442	788.62
414.819	774.16
415.197	801.96
415.574	778.23
415.951	807.83
416.328	827.04
416.705	827.72
417.082	841.05
417.46	839.47
417.837	830.43
418.214	864.78
418.591	862.52
418.967	858.9
419.344	861.62
419.721	869.3
420.098	872.91
420.475	890.09
420.852	894.38
421.228	914.95
421.605	926.7
421.982	913.14
422.358	927.83
422.735	914.95
423.111	942.29
423.488	968.96
423.864	945.23
424.241	966.7
424.617	949.52
424.994	977.54
425.37	995.17
425.746	976.19
426.123	1011.22
426.499	1011.44
426.875	1009.86
427.251	1023.42
427.627	1036.07
428.003	1036.98
428.379	1051.89
428.756	1051.44
429.132	1100.93
429.507	1068.62
429.883	1092.12
430.259	1135.73
430.635	1099.58
431.011	1131.89
431.387	1144.77
431.763	1181.16
432.138	1177.09
432.514	1169.86
432.89	1190.19
433.265	1221.15
433.641	1217.31
434.016	1252.11
434.392	1274.49
434.767	1287.82
435.143	1290.31
435.518	1289.63
435.894	1302.06
436.269	1308.61
436.644	1302.28
437.02	1342.96
437.395	1348.61
437.77	1367.82
438.145	1380.92
438.52	1380.02
438.895	1381.6
439.271	1386.8
439.646	1429.74
440.021	1447.59
440.395	1459.11
440.77	1435.39
441.145	1449.17
441.52	1462.96
441.895	1469.96
442.27	1513.8
442.645	1488.04
443.019	1497.98
443.394	1518.1
443.769	1510.41
444.143	1489.62
444.518	1543.41
444.892	1526.46
445.267	1528.94
445.641	1558.32
446.016	1542.28
446.39	1593.8
446.764	1578.66
447.139	1581.82
447.513	1625.89
447.887	1600.13
448.262	1600.13
448.636	1639.45
449.01	1651.43
449.384	1661.37
449.758	1692.55
450.132	1675.83
450.506	1717.64
450.88	1729.16
451.254	1717.19
451.628	1751.76
452.002	1757.64
452.376	1777.98
452.75	1790.86
453.123	1787.92
453.497	1858.65
453.871	1829.73
454.244	1875.37
454.618	1914.02
454.992	1941.36
455.365	1919.44
455.739	1953.11
456.112	1983.62
456.486	1987.69
456.859	2008.25
457.232	2070.85
457.606	2093.9
457.979	2094.8
458.352	2119.44
458.725	2167.12
459.099	2204.41
459.472	2222.26
459.845	2281.47
460.218	2271.75
460.591	2278.3
460.964	2308.13
461.337	2354.46
461.71	2373.67
462.083	2421.8
462.456	2396.26
462.829	2392.65
463.201	2476.49
463.574	2490.27
463.947	2550.38
464.32	2521.46
464.692	2584.96
465.065	2551.97
465.438	2624.73
465.81	2639.2
466.183	2648.91
466.555	2725.3
466.928	2762.58
467.3	2777.72
467.672	2819.76
468.045	2870.6
468.417	2876.48
468.789	2883.71
469.161	2952.41
469.534	2960.54
469.906	3024.27
470.278	3094.1
470.65	3093.65
471.022	3136.36
471.394	3212.29
471.766	3233.98
472.138	3263.81
472.51	3350.36
472.882	3403.24
473.253	3357.6
473.625	3424.49
473.997	3518.72
474.369	3586.29
474.74	3598.04
475.112	3680.98
475.484	3713.97
475.855	3766.85
476.227	3818.37
476.598	3905.83
476.97	3941.53
477.341	4058.37
477.713	4115.32
478.084	4159.16
478.455	4233.5
478.827	4293.62
479.198	4495.87
479.569	4438.24
479.94	4563.44
480.311	4588.98
480.682	4754.17
481.053	4805.69
481.424	4932.24
481.795	5017.44
482.166	5089.53
482.537	5226.7
482.908	5271.9
483.279	5388.95
483.65	5448.39
484.021	5576.29
484.391	5658.78
484.762	5715.05
485.133	5856.51
485.503	5957.98
485.874	6076.17
486.244	6203.62
486.615	6350.51
486.985	6427.8
487.356	6574.01
487.726	6642.25
488.097	6881.8
488.467	6912.98
488.837	7079.76
489.207	7208.12
489.578	7402.23
489.948	7507.09
490.318	7701.21
490.688	7714.99
491.058	7937.59
491.428	8175.1
491.798	8232.5
492.168	8444.02
492.538	8582.99
492.908	8769.2
493.278	8919.71
493.648	9052.13
494.017	9175.07
494.387	9396.53
494.757	9534.61
495.126	9732.34
495.496	9855.96
495.866	10035.84
496.235	10171.43
496.605	10379.11
496.974	10492.1
497.344	10807.12
497.713	10963.27
498.082	11148.58
498.452	11418.63
498.821	11553.76
499.19	11705.85
499.559	11869.46
499.928	12142.22
500.298	12385.15
500.667	12593.51
501.036	12736.78
501.405	12911.24
501.774	13142.42
502.143	13396.43
502.512	13723.65
502.88	13863.53
503.249	14012.46
503.618	14279.79
503.987	14481.6
504.356	14804.98
504.724	14963.17
505.093	15166.1
505.462	15392.08
505.83	15633.88
506.199	15836.36
506.567	16249.69
506.936	16361.1
507.304	16678.6
507.672	16881.76
508.041	17120.62
508.409	17371.01
508.777	17601.51
509.145	17905.46
509.514	18082.41
509.882	18336.64
510.25	18497.99
510.618	18774.14
510.986	18922.84
511.354	19253.45
511.722	19524.85
512.09	19725.53
512.458	19810.04
512.826	20256.36
513.193	20387.66
513.561	20621.55
513.929	20790.13
514.297	21101.99
514.664	21348.99
515.032	21498.81
515.4	21755.76
515.767	21986.71
516.135	22159.36
516.502	22188.06
516.869	22656.07
517.237	22883.41
517.604	22831.21
517.972	23139.22
518.339	23430.06
518.706	23659.43
519.073	23847.23
519.44	23931.97
519.808	24377.38
520.175	24381
520.542	24770.37
520.909	24885.16
521.276	25135.33
521.643	25419.39
522.009	25425.94
522.376	25917.45
522.743	26023.67
523.11	26344.79
523.477	26608.06
523.843	26883.08
524.21	27078.55
524.577	27293.69
524.943	27481.93
525.31	27589.95
525.676	28017.96
526.043	28288.24
526.409	28374.34
526.776	28729.58
527.142	28812.29
527.508	29006.19
527.874	29246.63
528.241	29607.98
528.607	29701.99
528.973	29914.64
529.339	29810.46
529.705	30173.84
530.071	30559.14
530.437	30590.78
530.803	30976.98
531.169	30998.68
531.535	30930.88
531.901	31299.46
532.267	31297.65
532.632	31634.59
532.998	31780.58
533.364	32028.93
533.73	32090.4
534.095	32265.99
534.461	32258.08
534.826	32438.86
535.192	32506.66
535.557	32712.53
535.923	32763.15
536.288	33011.05
536.653	33146.19
537.019	33068.23
537.384	33179.41
537.749	33301.89
538.114	33391.83
538.479	33452.62
538.845	33555.9
539.21	33572.39
539.575	33749.56
539.94	33693.97
540.305	33944.36
540.67	33823.46
541.034	34021.2
541.399	34091.48
541.764	34281.98
542.129	34275.88
542.494	34253.28
542.858	34396.1
543.223	34498.02
543.587	34658.02
543.952	34653.5
544.316	34717.9
544.681	34691.91
545.045	35068.17
545.41	35069.76
545.774	34923.77
546.138	35145.01
546.503	35284.89
546.867	35204.22
547.231	35511.78
547.595	35440.59
547.959	35525.79
548.324	35542.29
548.688	35638.33
549.052	35717.65
549.416	35862.05
549.779	35711.09
550.143	35852.56
550.507	36024.53
550.871	36128.71
551.235	36228.6
551.599	36312.66
551.962	36333.45
552.326	36462.71
552.689	36557.85
553.053	36562.15
553.417	36484.41
553.78	36856.6
554.143	36973.66
554.507	36937.5
554.87	37041.23
555.234	37317.38
555.597	37198.51
555.96	37333.2
556.323	37372.52
556.686	37585.4
557.05	37739.97
557.413	37731.83
557.776	37789.01
558.139	37951.04
558.502	37971.83
558.865	38071.03
559.228	38423.57
559.59	38420.18
559.953	38513.06
560.316	38806.38
560.679	38802.99
561.041	38987.62
561.404	38979.03
561.767	39362.75
562.129	39279.36
562.492	39517.55
562.854	39601.16
563.217	39592.12
563.579	39639.13
563.941	39783.98
564.304	39972
564.666	40384.19
565.028	40391.88
565.39	40453.34
565.753	40643.85
566.115	40611.98
566.477	40844.75
566.839	41020.56
567.201	41254
567.563	41205.87
567.925	41571.05
568.287	41639.75
568.648	41629.81
569.01	41884.72
569.372	42173.52
569.734	41942.34
570.095	42260.08
570.457	42383.46
570.819	42497.36
571.18	42498.49
571.542	42843.79
571.903	42823.22
572.265	42988.19
572.626	43111.13
572.987	43119.94
573.349	43217.56
573.71	43420.27
574.071	43477.44
574.432	43632.92
574.794	43839.24
575.155	43817.55
575.516	43720.15
575.877	44081.27
576.238	44046.69
576.599	44134.15
576.96	44046.47
577.32	44115.17
577.681	44452.56
578.042	44577.3
578.403	44359.46
578.763	44486.68
579.124	44465.22
579.485	44788.82
579.845	44744.76
580.206	44546.12
580.566	44716.51
580.927	44679.9
581.287	44707.92
581.648	44626.34
582.008	44881.25
582.368	44731.65
582.728	44720.35
583.089	44868.37
583.449	44791.76
583.809	44899.55
584.169	44886.67
584.529	44810.74
584.889	45076.95
585.249	44777.52
585.609	44617.53
585.969	44828.14
586.329	44752.21
586.688	44923.06
587.048	44731.65
587.408	44682.84
587.768	44800.35
588.127	44723.97
588.487	44712.67
588.846	44986.78
589.206	44542.28
589.565	44671.76
589.925	44979.1
590.284	44790.63
590.643	44723.51
591.003	44690.75
591.362	45001.92
591.721	44732.33
592.08	44811.42
592.44	44994.24
592.799	44784.75
593.158	44931.64
593.517	44754.92
593.876	44822.27
594.235	44835.15
594.593	44770.07
594.952	44738.65
595.311	44801.48
595.67	44977.29
596.029	45050.74
596.387	45109.49
596.746	45088.02
597.104	44846
597.463	44882.38
597.822	45093.22
598.18	44915.82
598.538	44937.97
598.897	45220.68
599.255	44995.82
599.613	45376.38
599.972	45135.71
600.33	45270.84
600.688	44993.34
601.046	45202.14
601.404	45459.09
601.762	45401.01
602.12	45368.24
602.478	45567.56
602.836	45481.46
603.194	45289.15
603.552	45311.75
603.91	45318.98
604.268	45563.49
604.625	45556.94
604.983	45736.37
605.341	45412.99
605.698	45765.07
606.056	45859.53
606.413	45736.37
606.771	45914.44
607.128	45842.58
607.485	45622.47
607.843	45782.92
608.2	45984.27
608.557	46118.05
608.914	45957.83
609.272	46218.39
609.629	46445.5
609.986	46418.16
610.343	46356.01
610.7	46511.04
611.057	46336.58
611.414	46371.83
611.771	46532.96
612.127	46545.84
612.484	46670.81
612.841	46781.99
613.198	46693.18
613.554	46601.66
613.911	47023.79
614.267	46955.55
614.624	46924.36
614.98	46982.66
615.337	47206.61
615.693	47054.75
616.05	47097.46
616.406	47364.12
616.762	47302.43
617.118	47262.2
617.475	47293.16
617.831	47392.6
618.187	47433.27
618.543	47513.04
618.899	47756.43
619.255	47604.34
619.611	47667.84
619.967	47819.93
620.323	47926.37
620.678	47772.02
621.034	47757.11
621.39	47725.02
621.746	47671.23
622.101	48193.48
622.457	47777.9
622.812	47951.45
623.168	48079.13
623.523	48085.91
623.879	48003.43
624.234	47793.49
624.589	47936.99
624.945	48004.56
625.3	48027.38
625.655	48035.74
626.01	48166.81
626.365	48060.15
626.72	47896.31
627.075	48016.76
627.43	48018.12
627.785	47953.94
628.14	48109.41
628.495	48024.44
628.85	48103.31
629.205	48061.96
629.559	48044.1
629.914	47986.03
630.269	47977.21
630.623	47874.16
630.978	47711.01
631.332	47949.87
631.687	47901.73
632.041	47841.17
632.396	47823.77
632.75	47639.82
633.104	47838.69
633.459	47565.25
633.813	47683.89
634.167	47591.91
634.521	47659.26
634.875	47568.18
635.229	47431.69
635.583	47249.32
635.937	47238.25
636.291	47330.9
636.645	47296.33
636.999	47057.01
637.352	47181.53
637.706	46898.15
638.06	47169.32
638.413	47051.59
638.767	46902.67
639.121	46927.98
639.474	46768.21
639.828	46795.32
640.181	46809.79
640.534	46856.56
640.888	46621.54
641.241	46582
641.594	46575.44
641.947	46696.34
642.301	46567.53
642.654	46558.04
643.007	46403.7
643.36	46423.36
643.713	46361.89
644.066	46587.87
644.419	46403.02
644.771	45863.82
645.124	45516.49
645.477	45538.41
645.83	45426.55
646.182	45271.97
646.535	45350.39
646.888	45348.13
647.24	45168.7
647.593	45458.18
647.945	45343.84
648.298	45234.46
648.65	45031.08
649.002	44773.68
649.355	44737.98
649.707	44617.98
650.059	44624.53
650.411	45159.43
650.763	45335.25
651.115	45870.6
651.467	45857.95
651.819	45796.71
652.171	45597.61
652.523	45577.73
652.875	45670.61
653.227	45458.41
653.578	45834.22
653.93	45586.32
654.282	45427.22
654.633	45466.32
654.985	45466.32
655.337	45551.74
655.688	45605.07
656.039	45677.39
656.391	45333.67
656.742	45395.81
657.094	45443.27
657.445	45565.07
657.796	45575.47
658.147	45377.28
658.498	45466.54
658.849	45554.68
659.2	45398.07
659.551	45374.34
659.902	45654.11
660.253	45432.2
660.604	45491.85
660.955	45410.95
661.306	45639.42
661.656	45362.82
662.007	45542.47
662.358	45494.11
662.708	45546.77
663.059	45610.5
663.409	45316.94
663.76	45554.23
664.11	45657.95
664.461	45672.64
664.811	45600.78
665.161	45608.01
665.511	45441.46
665.862	45511.29
666.212	45639.65
666.562	45722.81
666.912	45473.32
667.262	45339.54
667.612	45427.22
667.962	45661.57
668.312	45355.36
668.662	45772.53
669.011	45540.44
669.361	45425.19
669.711	45417.73
670.06	45400.78
670.41	45368.92
670.76	45360.11
671.109	45478.75
671.459	45486.21
671.808	45299.32
672.157	45399.2
672.507	45105.42
672.856	45144.52
673.205	45191.52
673.554	45346.32
673.904	45129.38
674.253	45531.4
674.602	45184.52
674.951	44780.01
675.3	44588.38
675.649	45248.92
675.998	45215.25
676.346	45113.56
676.695	45241.47
677.044	44834.02
677.393	45053
677.741	45104.52
678.09	45049.61
678.438	44886.9
678.787	44943.39
679.135	45005.31
679.484	44635.15
679.832	44749.28
680.181	44750.41
680.529	44723.29
680.877	44618.88
681.225	44483.07
681.573	44757.18
681.922	44492.56
682.27	44360.13
682.618	44326.69
682.966	44136.64
683.314	44252.34
683.661	44245.33
684.009	44053.25
684.357	43943.65
684.705	43771.9
685.053	43891.9
685.4	43653.26
685.748	43764.44
686.095	43587.95
686.443	43457.78
686.79	43277.68
687.138	43442.64
687.485	43313.15
687.832	43226.6
688.18	43332.36
688.527	42905.03
688.874	42948.87
689.221	43033.16
689.568	42733.28
689.915	42585.26
690.262	42571.48
690.609	42406.96
690.956	42199.06
691.303	42293.29
691.65	42105.5
691.997	41924.04
692.344	41811.73
692.69	41764.5
693.037	41780.54
693.383	41397.73
693.73	41502.58
694.077	41371.06
694.423	41299.42
694.769	41230.05
695.116	40937.4
695.462	40856.95
695.808	40767.91
696.155	40726.33
696.501	40369.05
696.847	40494.47
697.193	40222.39
697.539	40207.25
697.885	39908.95
698.231	39696.75
698.577	39515.74
698.923	39597.09
699.269	39320.27
699.614	39204.34
699.96	39111.23
700.306	39004.12
700.651	38906.04
700.997	38819.49
701.342	38864.46
701.688	38642.32
702.033	38334.75
702.379	38345.83
702.724	38321.2
703.069	38284.81
703.415	37806.41
703.76	37719.4
704.105	37743.13
704.45	37564.38
704.795	37493.87
705.14	37311.28
705.485	37168.23
705.83	37051.4
706.175	37112.41
706.52	37019.31
706.865	36947.45
707.209	36685.31
707.554	36659.54
707.899	36525.99
708.243	36391.53
708.588	36274.24
708.932	36118.99
709.277	36249.39
709.621	36092.1
709.966	35926.68
710.31	35957.42
710.654	35603.53
710.998	35806.46
711.342	35613.02
711.687	35533.02
712.031	35421.39
712.375	35308.62
712.719	35344.1
713.063	35188.17
713.407	35427.49
713.75	35201.96
714.094	35118.12
714.438	34915.86
714.782	35038.8
715.125	34645.13
715.469	35017.33
715.812	34688.97
716.156	34801.74
716.499	34462.31
716.843	34596.1
717.186	34359.49
717.53	34634.97
717.873	34447.17
718.216	34421.41
718.559	34415.54
718.902	34105.94
719.246	34243.34
719.589	33992.04
719.932	33962.44
720.275	34115.43
720.617	34006.06
720.96	33937.36
721.303	33980.07
721.646	33987.98
721.989	33771.48
722.331	33901.65
722.674	33886.96
723.016	33896
723.359	33776.91
723.701	33749.11
724.044	33718.15
724.386	33551.15
724.729	33637.48
725.071	33570.81
725.413	33639.28
725.755	33521.1
726.097	33437.26
726.439	33304.6
726.782	33275.68
727.124	33457.37
727.465	33370.82
727.807	33234.55
728.149	33303.25
728.491	33171.5
728.833	33397.94
729.175	33247.2
729.516	33156.36
729.858	33170.6
730.199	33420.99
730.541	33229.8
730.882	33180.77
731.224	33260.76
731.565	33111.84
731.906	33265.51
732.248	33188.45
732.589	33037.94
732.93	33063.71
733.271	32975.35
733.612	33069.36
733.953	33199.97
734.294	33023.93
734.635	33063.48
734.976	33128.56
735.317	33167.66
735.658	33209.24
735.999	32995.91
736.339	33174.66
736.68	33252.18
737.021	33166.98
737.361	33126.08
737.702	33300.31
738.042	33121.33
738.383	33182.35
738.723	33199.52
739.063	33108.9
739.404	33266.87
739.744	33205.17
740.084	33196.36
740.424	33188.68
740.764	33140.32
741.104	33439.06
741.444	33180.54
741.784	33272.74
742.124	33310.48
742.464	33442.45
742.804	33357.48
743.143	33403.36
743.483	33467.09
743.823	33317.49
744.162	33403.13
744.502	33566.52
744.841	33434.09
745.181	33771.71
745.52	33687.42
745.86	33697.59
746.199	33740.75
746.538	33689.91
746.877	33886.28
747.216	33906.85
747.556	33811.94
747.895	33931.03
748.234	34051.93
748.573	34115.88
748.911	34133.96
749.25	34010.12
749.589	34071.36
749.928	34207.41
750.267	34323.56
750.605	34386.38
750.944	34397.23
751.283	34647.17
751.621	34571.69
751.96	34524.46
752.298	34692.59
752.636	34775.98
752.975	34741.63
753.313	34637.45
753.651	35034.05
753.989	34788.63
754.327	34985.69
754.666	34838.35
755.004	35103.88
755.342	35210.54
755.679	35206.93
756.017	35039.02
756.355	35361.05
756.693	35282.63
757.031	35334.61
757.368	35357.66
757.706	35534.38
758.044	35455.06
758.381	35578.44
758.719	35608.27
759.056	35561.72
759.394	35517.65
759.731	35532.12
760.068	35520.59
760.405	35615.73
760.743	35598.78
761.08	35704.54
761.417	35501.61
761.754	35557.43
762.091	35675.16
762.428	35656.86
762.765	35555.62
763.102	35568.73
763.438	35702.06
763.775	35374.61
764.112	35398.79
764.449	35485.79
764.785	35358.56
765.122	35356.08
765.458	35255.51
765.795	35263.65
766.131	35335.51
766.467	35276.98
766.804	35004.22
767.14	35102.75
767.476	34964.22
767.812	35049.19
768.148	35199.92
768.485	34982.75
768.821	34697.34
769.157	34664.34
769.492	34581.86
769.828	34722.65
770.164	34317.46
770.5	34394.52
770.836	34448.98
771.171	34431.13
771.507	34218.93
771.842	34091.7
772.178	33989.11
772.513	34036.11
772.849	33706.18
773.184	33849.67
773.519	33786.63
773.855	33637.48
774.19	33497.14
774.525	33464.15
774.86	33480.87
775.195	33405.17
775.53	33263.48
775.865	33097.6
776.2	32979.87
776.535	32658.29
776.87	32777.16
777.205	32725.18
777.539	32523.83
777.874	32536.49
778.209	32315.03
778.543	32327.68
778.878	32165.88
779.212	32326.78
779.547	31928.37
779.881	31977.41
780.215	31699.22
780.55	31852.67
780.884	31606.57
781.218	31618.77
781.552	31593.92
781.886	31360.93
782.22	31205.45
782.554	31136.3
782.888	30849.08
783.222	30741.51
783.556	30674.17
783.889	30686.82
784.223	30448.63
784.557	30383.33
784.89	30575.86
785.224	30231.46
785.557	30146.5
785.891	30011.13
786.224	30113.73
786.558	30021.08
786.891	29785.83
787.224	29642.78
787.557	29548.09
787.891	29632.61
788.224	29296.8
788.557	29383.35
788.89	29247.08
789.223	29204.15
789.556	29079.4
789.888	28868.79
790.221	28896.81
790.554	28679.42
790.887	28845.74
791.219	28693.65
791.552	28483.04
791.884	28410.5
792.217	28278.97
792.549	28174.57
792.882	27989.49
793.214	27955.82
793.546	27862.71
793.879	27722.6
794.211	27547.24
794.543	27784.75
794.875	27511.99
795.207	27451.65
795.539	27407.58
795.871	27460.46
796.203	27232.45
796.535	26980.7
796.867	27144.99
797.198	26911.55
797.53	26919.24
797.862	26672.01
798.193	26763.31
798.525	26554.27
798.856	26624.33
799.188	26248.97
799.519	26458.46
799.85	26236.09
800.182	26199.03
800.513	26416.65
800.844	25926.72
801.175	26129.88
801.506	26052.82
801.837	25888.98
802.168	25820.51
802.499	25796.78
802.83	25606.5
803.161	25453.06
803.491	25538.48
803.822	25553.62
804.153	25231.6
804.483	25073.86
804.814	25138.94
805.145	25112.5
805.475	25138.49
805.805	24997.25
806.136	25041.09
806.466	25015.56
806.796	24883.58
807.126	24783.25
807.457	24618.96
807.787	24796.13
808.117	24557.49
808.447	24493.99
808.777	24585.29
809.107	24376.7
809.436	24233.43
809.766	24266.88
810.096	24212.41
810.426	24001.35
810.755	24070.72
811.085	23950.27
811.414	23891.52
811.744	23872.54
812.073	23873.21
812.403	23725.42
812.732	23710.73
813.061	23695.59
813.39	23514.13
813.719	23547.12
814.049	23564.52
814.378	23513.9
814.707	23436.16
815.036	23451.08
815.365	23263.96
815.693	23129.28
816.022	23122.5
816.351	23086.12
816.68	23094.93
817.008	23025.78
817.337	22904.65
817.665	22834.15
817.994	22783.3
818.322	22967.25
818.651	22807.25
818.979	22688.16
819.307	22709.4
819.636	22696.3
819.964	22690.65
820.292	22655.39
820.62	22576.07
820.948	22592.57
821.276	22654.94
821.604	22617.2
821.932	22694.94
822.259	22540.59
822.587	22520.71
822.915	22555.96
823.243	22583.98
823.57	22468.51
823.898	22609.74
824.225	22538.33
824.553	22434.16
824.88	22540.59
825.207	22577.88
825.535	22393.93
825.862	22612.23
826.189	22456.75
826.516	22492.91
826.843	22594.15
827.17	22579.69
827.497	22727.93
827.824	22635.51
828.151	22710.53
828.478	22509.86
828.805	22670.76
829.131	22594.15
829.458	22645.45
829.785	22459.92
830.111	22469.86
830.438	22549.63
830.764	22619.01
831.09	22540.14
831.417	22449.75
831.743	22601.16
832.069	22564.1
832.395	22496.53
832.722	22528.84
833.048	22363.65
833.374	22579.01
833.7	22499.01
834.026	22536.53
834.351	22422.63
834.677	22575.4
835.003	22482.06
835.329	22466.25
835.654	22403.42
835.98	22228.29
836.306	22362.75
836.631	22357.1
836.956	22482.52
837.282	22486.36
837.607	22248.62
837.932	22239.13
838.258	22247.49
838.583	22122.53
838.908	22099.7
839.233	22097.67
839.558	22060.83
839.883	21974.28
840.208	21957.78
840.533	21977.22
840.858	21896.09
841.182	21907.16
841.507	21864.91
841.832	21775.87
842.156	21854.74
842.481	21795.53
842.805	21702.88
843.13	21632.37
843.454	21721.18
843.778	21613.39
844.103	21517.57
844.427	21527.06
844.751	21528.64
845.075	21452.94
845.399	21359.38
845.723	21249.78
846.047	21345.82
846.371	21113.96
846.695	21035.32
847.019	21034.42
847.343	20859.06
847.666	20775.22
847.99	20694.31
848.313	20597.14
848.637	20557.6
848.96	20613.86
849.284	20556.01
849.607	20341.56
849.931	20258.85
850.254	20140.66
850.577	20094.78
850.9	19936.82
851.223	20014.56
851.546	19861.57
851.869	19740.44
852.192	19850.95
852.515	19597.39
852.838	19562.14
853.161	19499.32
853.483	19457.29
853.806	19325.99
854.129	19340.68
854.451	19253.9
854.774	19089.16
855.096	19084.64
855.419	19011.42
855.741	19029.95
856.063	18943.85
856.385	18896.85
856.708	18824.99
857.03	18782.73
857.352	18730.52
857.674	18623.86
857.996	18609.17
858.318	18415.05
858.64	18584.99
858.961	18379.57
859.283	18450.31
859.605	18365.11
859.926	18373.25
860.248	18330.99
860.57	18224.32
860.891	18135.96
861.212	18051.67
861.534	18116.76
861.855	18042.18
862.176	17937.55
862.498	18035.18
862.819	17916.99
863.14	17834.05
863.461	17817.33
863.782	17714.28
864.103	17793.37
864.424	17744.34
864.745	17730.78
865.065	17619.59
865.386	17536.88
865.707	17621.85
866.027	17493.95
866.348	17439.71
866.668	17331.01
866.989	17357.45
867.309	17237.23
867.63	17303.9
867.95	17317.68
868.27	17241.75
868.59	17325.36
868.91	17302.09
869.23	17265.03
869.55	17155.2
869.87	17197.01
870.19	17081.3
870.51	17075.88
870.83	17098.25
871.15	17062.32
871.469	17003.79
871.789	17059.38
872.109	16891.25
872.428	16918.59
872.748	16896
873.067	16899.16
873.386	16823.68
873.706	16851.93
874.025	16718.83
874.344	16735.1
874.663	16677.7
874.982	16659.17
875.301	16682.67
875.62	16615.55
875.939	16624.59
876.258	16542.33
876.577	16419.4
876.896	16552.28
877.214	16470.02
877.533	16481.77
877.852	16403.13
878.17	16380.76
878.489	16395.44
878.807	16434.09
879.125	16326.75
879.444	16348.89
879.762	16220.53
880.08	16244.04
880.398	16217.6
880.716	16210.14
881.034	16076.13
881.352	16196.35
881.67	16017.15
881.988	16124.94
882.306	15963.59
882.624	16018.96
882.941	15983.25
883.259	15926.76
883.577	15861.9
883.894	15836.59
884.212	15918.4
884.529	15865.52
884.846	15725.86
885.164	15631.62
885.481	15640.89
885.798	15646.54
886.115	15504.62
886.432	15696.93
886.75	15627.56
887.067	15606.99
887.383	15461.68
887.7	15465.98
888.017	15309.37
888.334	15315.92
888.651	15356.15
888.967	15246.77
889.284	15235.93
889.6	15186.21
889.917	15160.67
890.233	15195.48
890.55	15080.68
890.866	15116.83
891.182	14960.91
891.498	14946.67
891.815	14790.29
892.131	14823.06
892.447	14784.87
892.763	14753
893.079	14725.66
893.395	14689.5
893.71	14617.19
894.026	14645.89
894.342	14562.27
894.657	14466.91
894.973	14419.45
895.289	14520.24
895.604	14418.32
895.92	14330.87
896.235	14322.05
896.55	14260.13
896.865	14182.17
897.181	14200.7
897.496	14143.75
897.811	14045.45
898.126	13936.53
898.441	14007.26
898.756	13929.52
899.071	13846.59
899.386	13928.84
899.7	13775.85
900.015	13668.28
900.33	13636.42
900.644	13551.68
900.959	13605.91
901.273	13463.09
901.588	13509.19
901.902	13393.26
902.216	13473.71
902.531	13326.15
902.845	13298.35
903.159	13113.72
903.473	13196.21
903.787	13140.61
904.101	13066.27
904.415	13083.89
904.729	13021.52
905.042	12908.08
905.356	12891.58
905.67	12813.17
905.984	12782.21
906.297	12747.18
906.611	12699.95
906.924	12675.32
907.237	12633.51
907.551	12612.27
907.864	12442.33
908.177	12533.4
908.491	12530.91
908.804	12391.48
909.117	12284.82
909.43	12183.35
909.743	12139.06
910.056	12273.97
910.368	12201.66
910.681	12091.15
910.994	12052.73
911.307	11965.73
911.619	11825.17
911.932	11915.79
912.244	11727.54
912.557	11786.07
912.869	11676.92
913.181	11676.02
913.494	11666.98
913.806	11555.8
914.118	11567.1
914.43	11558.28
914.742	11411.17
915.054	11389.47
915.366	11338.18
915.678	11214.56
915.99	11258.18
916.302	11159.2
916.613	11115.13
916.925	11077.39
917.236	11092.08
917.548	11081.01
917.859	10957.4
918.171	10898.87
918.482	10876.04
918.794	10831.52
919.105	10825.2
919.416	10754.46
919.727	10721.02
920.038	10610.96
920.349	10609.38
920.66	10504.3
920.971	10524.64
921.282	10504.07
921.593	10406.68
921.903	10413
922.214	10309.5
922.525	10274.25
922.835	10316.51
923.146	10153.57
923.456	10145.89
923.767	10113.8
924.077	10066.12
924.387	10044.88
924.697	10002.39
925.008	10011.43
925.318	9930.98
925.628	9929.17
925.938	9848.95
926.248	9798.33
926.558	9726.69
926.867	9739.12
927.177	9669.97
927.487	9594.27
927.796	9621.61
928.106	9522.18
928.416	9486.47
928.725	9490.09
929.034	9449.19
929.344	9359.47
929.653	9340.26
929.962	9266.82
930.271	9225.69
930.581	9234.5
930.89	9236.31
931.199	9101.63
931.508	9112.47
931.817	9124.45
932.125	9048.52
932.434	9016.88
932.743	8921.74
933.051	8904.12
933.36	8852.82
933.669	8821.63
933.977	8754.29
934.286	8749.32
934.594	8666.16
934.902	8716.78
935.21	8632.48
935.519	8562.2
935.827	8528.98
936.135	8472.26
936.443	8452.6
936.751	8430
937.059	8407.63
937.367	8352.04
937.674	8360.4
937.982	8311.59
938.29	8315.43
938.597	8323.79
938.905	8223.46
939.213	8172.84
939.52	8097.36
939.827	8196.34
940.135	8111.59
940.442	7994.76
940.749	7961.77
941.056	7983.69
941.363	7933.07
941.67	7914.99
941.977	7854.2
942.284	7835.44
942.591	7735.33
942.898	7744.37
943.205	7743.47
943.511	7670.93
943.818	7672.74
944.125	7611.04
944.431	7609.91
944.738	7561.33
945.044	7548.45
945.35	7432.74
945.657	7394.33
945.963	7437.04
946.269	7392.07
946.575	7288.57
946.881	7326.76
947.187	7289.92
947.493	7190.49
947.799	7203.14
948.105	7208.34
948.41	7133.77
948.716	7143.71
949.022	7103.71
949.327	7102.13
949.633	6977.61
949.938	7015.35
950.244	7010.38
950.549	6951.63
950.854	6946.88
951.16	6880.44
951.465	6869.82
951.77	6844.06
952.075	6777.39
952.38	6760.9
952.685	6756.83
952.99	6653.55
953.294	6685.19
953.599	6677.51
953.904	6548.25
954.209	6524.74
954.513	6490.17
954.818	6481.58
955.122	6495.59
955.426	6528.13
955.731	6433.67
956.035	6371.98
956.339	6357.29
956.643	6361.36
956.948	6320.46
957.252	6272.32
957.556	6270.06
957.86	6221.25
958.163	6229.61
958.467	6231.64
958.771	6173.11
959.075	6142.83
959.378	6053.34
959.682	6114.36
959.985	6035.04
960.289	5992.1
960.592	5969.73
960.896	5952.56
961.199	5906.23
961.502	5952.33
961.805	5903.97
962.108	5848.6
962.411	5808.83
962.714	5751.2
963.017	5744.65
963.32	5745.1
963.623	5693.13
963.926	5708.04
964.228	5669.62
964.531	5661.72
964.833	5660.36
965.136	5571.1
965.438	5570.87
965.741	5501.95
966.043	5533.81
966.345	5538.55
966.648	5499.91
966.95	5431.21
967.252	5432.34
967.554	5402.29
967.856	5380.82
968.158	5345.34
968.46	5370.65
968.761	5282.52
969.063	5264.89
969.365	5327.04
969.666	5228.96
969.968	5214.5
970.269	5207.04
970.571	5210.88
970.872	5159.81
971.174	5110.77
971.475	5127.04
971.776	5093.37
972.077	5054.05
972.378	5056.99
972.679	4966.59
972.98	5004.11
973.281	4965.24
973.582	4967.27
973.883	4934.28
974.183	4909.42
974.484	4892.92
974.785	4815.64
975.085	4844.79
975.386	4815.18
975.686	4762.53
975.986	4761.85
976.287	4793.04
976.587	4696.77
976.887	4735.64
977.187	4689.31
977.487	4701.97
977.787	4660.39
978.087	4591.01
978.387	4586.26
978.687	4530.45
978.987	4585.36
979.286	4530.45
979.586	4553.95
979.885	4494.51
980.185	4459.49
980.484	4457.68
980.784	4439.15
981.083	4388.08
981.382	4445.48
981.682	4385.59
981.981	4358.02
982.28	4387.17
982.579	4339.26
982.878	4376.55
983.177	4254.75
983.475	4282.54
983.774	4246.61
984.073	4248.42
984.372	4215.88
984.67	4192.83
984.969	4182.21
985.267	4125.94
985.566	4136.33
985.864	4102.43
986.162	4078.25
986.461	4036.67
986.759	4028.54
987.057	4011.36
987.355	3989.9
987.653	3986.96
987.951	3970.69
988.249	3940.63
988.547	3921.2
988.844	3926.85
989.142	3842.1
989.44	3884.81
989.737	3877.13
990.035	3814.98
990.332	3855.66
990.63	3809.33
990.927	3819.05
991.224	3806.17
991.521	3797.81
991.819	3750.13
992.116	3714.87
992.413	3713.74
992.71	3694.76
993.006	3705.16
993.303	3645.05
993.6	3652.95
993.897	3599.4
994.193	3608.21
994.49	3545.39
994.787	3549
995.083	3501.77
995.379	3512.85
995.676	3502.9
995.972	3496.8
996.268	3454.54
996.565	3488.89
996.861	3428.1
997.157	3431.04
997.453	3391.72
997.749	3370.7
998.044	3381.1
998.34	3344.04
998.636	3316.69
998.932	3295.45
999.227	3302.46
999.523	3250.48
999.818	3275.56
1000.114	3283.02
1000.409	3215.9
1000.704	3201.67
1001	3150.82
1001.295	3143.82
1001.59	3136.13
1001.885	3121.44
1002.18	3118.73
1002.475	3085.29
1002.77	3076.25
1003.065	3055.91
1003.359	3050.48
1003.654	3004.84
1003.949	2998.51
1004.243	2989.47
1004.538	2985.63
1004.832	2976.14
1005.127	2939.53
1005.421	2911.51
1005.715	2887.33
1006.009	2897.95
1006.304	2886.42
1006.598	2845.29
1006.892	2813.43
1007.186	2810.72
1007.48	2795.8
1007.773	2784.05
1008.067	2784.73
1008.361	2745.86
1008.655	2727.1
1008.948	2713.09
1009.242	2723.26
1009.535	2682.13
1009.829	2694.79
1010.122	2659.53
1010.415	2622.47
1010.708	2598.07
1011.001	2627.67
1011.295	2586.99
1011.588	2562.14
1011.881	2560.55
1012.173	2572.98
1012.466	2509.03
1012.759	2495.25
1013.052	2518.52
1013.344	2476.49
1013.637	2465.42
1013.93	2436.49
1014.222	2428.58
1014.514	2416.15
1014.807	2437.39
1015.099	2381.58
1015.391	2370.5
1015.683	2383.38
1015.976	2383.61
1016.268	2341.12
1016.56	2279.43
1016.851	2287.12
1017.143	2264.52
1017.435	2267.45
1017.727	2228.59
1018.018	2241.24
1018.31	2276.04
1018.602	2217.51
1018.893	2215.93
1019.185	2208.7
1019.476	2184.29
1019.767	2151.07
1020.058	2133.9
1020.35	2102.94
1020.641	2091.87
1020.932	2103.17
1021.223	2092.32
1021.514	2048.48
1021.804	2024.98
1022.095	2031.08
1022.386	2045.09
1022.677	2039.89
1022.967	2007.8
1023.258	1980
1023.548	1947.91
1023.839	1966.9
1024.129	1921.7
1024.419	1922.15
1024.709	1938.65
1025	1869.72
1025.29	1896.16
1025.58	1869.5
1025.87	1863.4
1026.16	1856.62
1026.449	1823.17
1026.739	1840.12
1027.029	1790.4
1027.319	1795.38
1027.608	1799.22
1027.898	1798.09
1028.187	1776.39
1028.477	1768.94
1028.766	1755.38
1029.055	1761.93
1029.344	1695.27
1029.634	1688.71
1029.923	1676.28
1030.212	1669.96
1030.501	1678.77
1030.79	1655.72
1031.078	1622.05
1031.367	1615.49
1031.656	1636.51
1031.945	1625.89
1032.233	1598.32
1032.522	1616.17
1032.81	1565.55
1033.099	1559.22
1033.387	1564.2
1033.675	1533.01
1033.963	1531.65
1034.251	1539.11
1034.54	1522.84
1034.828	1504.31
1035.116	1497.31
1035.403	1462.28
1035.691	1468.15
1035.979	1422.73
1036.267	1442.17
1036.554	1423.86
1036.842	1403.97
1037.129	1389.29
1037.417	1410.75
1037.704	1400.36
1037.992	1370.75
1038.279	1399.68
1038.566	1340.7
1038.853	1340.7
1039.14	1340.7
