Data from 583_FLMS001491_002.txt Node
Date: Thu Apr 19 15:43:18 BST 2018
User: hsy
Spectrometer: FLMS00149
Trigger mode: 0
Integration Time (sec): 1.000000E-2
Scans to average: 10
Electric dark correction enabled: true
Nonlinearity correction enabled: false
Boxcar width: 0
XAxis mode: Wavelengths
Number of Pixels in Spectrum: 2048
>>>>>Begin Spectral Data<<<<<
341.393	-7.7
341.776	-7.7
342.16	-7.7
342.543	-57.19
342.927	-74.36
343.31	-91.54
343.693	-59
344.077	-48.6
344.46	-57.41
344.843	-52.67
345.226	-31.2
345.61	-47.47
345.993	-16.96
346.376	-32.1
346.759	16.93
347.142	34.79
347.525	47.22
347.908	71.85
348.291	72.3
348.674	93.99
349.057	99.87
349.44	132.19
349.823	154.11
350.206	181.68
350.588	223.71
350.971	245.63
351.354	252.63
351.737	258.06
352.119	296.02
352.502	299.19
352.884	302.12
353.267	321.79
353.65	326.53
354.032	297.83
354.414	336.7
354.797	345.29
355.179	355
355.562	354.1
355.944	359.07
356.326	350.03
356.709	348.9
357.091	386.19
357.473	374.21
357.855	354.1
358.238	377.83
358.62	381.9
359.002	378.51
359.384	380.31
359.766	371.5
360.148	383.7
360.53	378.51
360.912	388.68
361.294	403.82
361.676	408.11
362.057	381.67
362.439	376.25
362.821	400.88
363.203	378.96
363.584	362.24
363.966	363.59
364.348	353.65
364.729	355.68
365.111	362.24
365.493	376.02
365.874	364.95
366.256	359.98
366.637	377.15
367.019	346.64
367.4	359.3
367.781	354.55
368.163	358.85
368.544	365.4
368.925	344.38
369.306	353.42
369.688	365.4
370.069	368.56
370.45	366.3
370.831	368.79
371.212	361.56
371.593	369.24
371.974	360.65
372.355	374.44
372.736	383.25
373.117	364.04
373.498	390.48
373.879	384.38
374.26	388
374.641	385.06
375.021	364.04
375.402	397.49
375.783	381.67
376.163	395.91
376.544	420.77
376.925	392.07
377.305	390.71
377.686	392.74
378.066	403.14
378.447	401.56
378.827	394.78
379.208	387.09
379.588	424.61
379.968	400.2
380.349	391.39
380.729	416.02
381.109	406.75
381.489	422.35
381.87	416.92
382.25	413.76
382.63	431.16
383.01	427.55
383.39	415.79
383.77	402.24
384.15	422.35
384.53	443.14
384.91	435.45
385.29	434.32
385.67	429.58
386.049	447.88
386.429	457.15
386.809	423.48
387.189	448.56
387.568	455.79
387.948	437.49
388.328	437.49
388.707	477.49
389.087	457.83
389.466	472.97
389.846	450.82
390.225	464.15
390.605	470.71
390.984	488.33
391.363	479.75
391.743	472.97
392.122	498.05
392.501	491.95
392.881	501.44
393.26	508.22
393.639	509.58
394.018	513.42
394.397	493.76
394.776	500.54
395.155	500.09
395.534	527.2
395.913	503.93
396.292	519.29
396.671	541.21
397.05	539.18
397.429	528.79
397.808	536.24
398.186	545.96
398.565	541.89
398.944	547.32
399.323	531.95
399.701	546.64
400.08	540.99
400.458	568.78
400.837	558.16
401.215	552.74
401.594	559.29
401.972	544.15
402.351	559.29
402.729	595.68
403.107	598.84
403.486	580.08
403.864	603.81
404.242	572.4
404.62	615.79
404.999	595.68
405.377	612.4
405.755	610.59
406.133	616.47
406.511	612.85
406.889	615.56
407.267	603.13
407.645	623.7
408.023	649.69
408.401	648.56
408.779	670.02
409.156	662.34
409.534	659.86
409.912	663.92
410.29	682.91
410.667	673.64
411.045	680.42
411.422	682
411.8	705.05
412.178	704.6
412.555	691.27
412.933	739.85
413.31	751.15
413.687	751.83
414.065	742.79
414.442	736.24
414.819	751.15
415.197	763.81
415.574	797.48
415.951	780.53
416.328	765.84
416.705	776.69
417.082	797.93
417.46	815.78
417.837	798.16
418.214	808.78
418.591	823.24
418.967	806.97
419.344	820.98
419.721	815.33
420.098	839.06
420.475	844.48
420.852	867.08
421.228	856.46
421.605	841.55
421.982	870.02
422.358	863.92
422.735	855.56
423.111	874.31
423.488	891.04
423.864	878.83
424.241	909.34
424.617	904.59
424.994	935.1
425.37	902.79
425.746	938.04
426.123	925.84
426.499	917.93
426.875	961.09
427.251	953.86
427.627	993.41
428.003	998.15
428.379	982.11
428.756	977.59
429.132	1020.75
429.507	1009.45
429.883	1039.28
430.259	1039.28
430.635	1066.85
431.011	1060.75
431.387	1084.48
431.763	1067.53
432.138	1106.17
432.514	1114.31
432.89	1095.55
433.265	1132.39
433.641	1131.93
434.016	1163.8
434.392	1152.27
434.767	1190.24
435.143	1190.92
435.518	1201.31
435.894	1206.73
436.269	1220.74
436.644	1256.22
437.02	1263.23
437.395	1239.28
437.77	1276.56
438.145	1258.94
438.52	1295.77
438.895	1275.88
439.271	1262.55
439.646	1322.89
440.021	1323.11
440.395	1370.12
440.77	1341.87
441.145	1340.52
441.52	1370.8
441.895	1356.79
442.27	1361.31
442.645	1370.35
443.019	1398.82
443.394	1403.79
443.769	1396.33
444.143	1401.3
444.518	1454.86
444.892	1388.2
445.267	1424.58
445.641	1441.3
446.016	1434.98
446.39	1465.03
446.764	1474.75
447.139	1462.32
447.513	1490.57
447.887	1493.73
448.262	1473.17
448.636	1497.35
449.01	1543.9
449.384	1533.28
449.758	1561.75
450.132	1554.3
450.506	1582.77
450.88	1569.66
451.254	1596.78
451.628	1635.2
452.002	1624.12
452.376	1625.93
452.75	1643.33
453.123	1660.06
453.497	1705.03
453.871	1708.42
454.244	1761.07
454.618	1760.62
454.992	1775.76
455.365	1821.18
455.739	1826.15
456.112	1814.18
456.486	1886.94
456.859	1844.91
457.232	1923.1
457.606	1903.66
457.979	1932.82
458.352	1965.13
458.725	1995.64
459.099	1970.78
459.472	2024.79
459.845	2041.51
460.218	2094.62
460.591	2122.64
460.964	2102.08
461.337	2147.05
461.71	2202.87
462.083	2207.39
462.456	2238.8
462.829	2225.01
463.201	2305.46
463.574	2240.38
463.947	2319.47
464.32	2350.66
464.692	2354.5
465.065	2373.03
465.438	2409.41
465.81	2466.81
466.183	2490.09
466.555	2514.27
466.928	2526.7
467.3	2489.86
467.672	2573.93
468.045	2636.53
468.417	2646.7
468.789	2665.9
469.161	2709.07
469.534	2714.94
469.906	2784.77
470.278	2851.89
470.65	2820.25
471.022	2887.59
471.394	2926.01
471.766	2973.24
472.138	3023.64
472.51	3032.67
472.882	3138.66
473.253	3098.89
473.625	3174.14
473.997	3220.47
474.369	3244.19
474.74	3309.28
475.112	3350.18
475.484	3384.98
475.855	3507.24
476.227	3518.54
476.598	3617.97
476.97	3622.72
477.341	3719.44
477.713	3749.94
478.084	3820.9
478.455	3910.84
478.827	3963.27
479.198	4061.12
479.569	4081.69
479.94	4170.05
480.311	4216.37
480.682	4350.15
481.053	4416.59
481.424	4541.11
481.795	4587.89
482.166	4670.6
482.537	4745.85
482.908	4867.65
483.279	4908.78
483.65	5016.13
484.021	5120.76
484.391	5233.52
484.762	5271.94
485.133	5379.96
485.503	5453.63
485.874	5601.65
486.244	5716.67
486.615	5852.71
486.985	5904.92
487.356	6109.43
487.726	6115.08
488.097	6337.67
488.467	6400.5
488.837	6567.04
489.207	6648.17
489.578	6879.58
489.948	6970.2
490.318	7129.74
490.688	7175.84
491.058	7360.7
491.428	7481.37
491.798	7602.95
492.168	7863.73
492.538	8005.88
492.908	8209.94
493.278	8309.6
493.648	8422.82
494.017	8677.5
494.387	8799.75
494.757	8924.95
495.126	9106.64
495.496	9218.27
495.866	9492.39
496.235	9616.23
496.605	9813.06
496.974	10044.02
497.344	10270
497.713	10389.77
498.082	10504.57
498.452	10760.15
498.821	10979.81
499.19	11137.77
499.559	11344.77
499.928	11481.27
500.298	11698.66
500.667	11959.67
501.036	12162.38
501.405	12389.49
501.774	12507.91
502.143	12817.5
502.512	12973.43
502.88	13205.06
503.249	13438.95
503.618	13716.69
503.987	13861.99
504.356	14085.72
504.724	14273.06
505.093	14557.57
505.462	14731.12
505.83	14925.24
506.199	15241.17
506.567	15488.17
506.936	15663.08
507.304	15958.89
507.672	16228.94
508.041	16466.67
508.409	16624.63
508.777	16993.66
509.145	17076.15
509.514	17298.74
509.882	17524.5
510.25	17883.13
510.618	18020.3
510.986	18230.69
511.354	18508.88
511.722	18772.6
512.09	19105.7
512.458	19118.13
512.826	19445.35
513.193	19653.71
513.561	19910.87
513.929	20051.44
514.297	20284.88
514.664	20619.1
515.032	20773.9
515.4	20946.33
515.767	21139.77
516.135	21447.11
516.502	21310.61
516.869	21864.72
517.237	22028.56
517.604	21973.42
517.972	22425.84
518.339	22572.73
518.706	22670.35
519.073	22899.95
519.44	23061.75
519.808	23379.94
520.175	23466.94
520.542	23697.44
520.909	23986.93
521.276	24194.38
521.643	24482.05
522.009	24578.77
522.376	24934.25
522.743	25088.59
523.11	25407.45
523.477	25693.55
523.843	25765.64
524.21	26217.83
524.577	26252.85
524.943	26357.26
525.31	26575.33
525.676	26913.4
526.043	27161.98
526.409	27357.91
526.776	27742.53
527.142	27715.87
527.508	27963.54
527.874	28152.92
528.241	28336.19
528.607	28336.64
528.973	28732.34
529.339	28878.1
529.705	29104.31
530.071	29315.15
530.437	29563.95
530.803	29681.47
531.169	29870.61
531.535	29930.5
531.901	30130.27
532.267	30265.4
532.632	30383.59
532.998	30628.33
533.364	30669.91
533.73	30784.94
534.095	31112.16
534.461	31057.93
534.826	31264.93
535.192	31428.09
535.557	31643
535.923	31677.8
536.288	31685.71
536.653	31841.63
537.019	31814.74
537.384	31938.58
537.749	32096.54
538.114	32184.22
538.479	32112.36
538.845	32253.6
539.21	32272.13
539.575	32545.57
539.94	32513.03
540.305	32651.1
540.67	32553.03
541.034	32888.61
541.399	32792.8
541.764	32990.76
542.129	33129.28
542.494	33183.52
542.858	33300.81
543.223	33171.09
543.587	33372.89
543.952	33429.84
544.316	33454.47
544.681	33386.45
545.045	33685.43
545.41	33746.22
545.774	33565.21
546.138	33701.02
546.503	33804.97
546.867	33847.46
547.231	34015.14
547.595	34030.96
547.959	34185.3
548.324	34218.97
548.688	34116.83
549.052	34240.89
549.416	34333.32
549.779	34344.62
550.143	34486.99
550.507	34643.37
550.871	34672.07
551.235	34565.18
551.599	35041.32
551.962	34899.18
552.326	35022.79
552.689	34982.57
553.053	34980.08
553.417	35243.58
553.78	35473.63
554.143	35504.36
554.507	35612.16
554.87	35601.08
555.234	35942.54
555.597	35670.91
555.96	35860.51
556.323	35869.33
556.686	35999.94
557.05	36041.52
557.413	36168.53
557.776	36180.28
558.139	36405.58
558.502	36525.58
558.865	36431.8
559.228	36743.43
559.59	36606.25
559.953	36784.33
560.316	37258.44
560.679	37232.91
561.041	37275.84
561.404	37474.93
561.767	37767.35
562.129	37609.39
562.492	37967.12
562.854	37986.33
563.217	38018.65
563.579	38174.35
563.941	38346.1
564.304	38557.16
564.666	38650.27
565.028	38671.29
565.39	38796.71
565.753	39070.6
566.115	38980.43
566.477	39250.48
566.839	39232.63
567.201	39708.09
567.563	39599.62
567.925	39848.88
568.287	39840.52
568.648	39782.67
569.01	40114.41
569.372	40317.12
569.734	40234.18
570.095	40538.13
570.457	40660.16
570.819	40733.6
571.18	40630.1
571.542	41092.01
571.903	40945.35
572.265	41214.04
572.626	41229.18
572.987	41195.96
573.349	41423.08
573.71	41625.56
574.071	41643.18
574.432	41788.72
574.794	42070.97
575.155	42020.12
575.516	41931.76
575.877	42183.06
576.238	42101.93
576.599	42268.25
576.96	42417.63
577.32	42508.02
577.681	42505.53
578.042	42727.22
578.403	42553.44
578.763	42738.75
579.124	42658.07
579.485	42879.54
579.845	42936.48
580.206	42770.39
580.566	42754.34
580.927	42825.75
581.287	42968.57
581.648	42885.19
582.008	43038.18
582.368	43074.56
582.728	42971.74
583.089	43066.88
583.449	43080.21
583.809	43102.13
584.169	43178.96
584.529	42804.06
584.889	43241.79
585.249	43099.64
585.609	42798.41
585.969	43115.24
586.329	42955.47
586.688	42983.26
587.048	43011.74
587.408	42975.35
587.768	42869.14
588.127	42904.85
588.487	43017.61
588.846	43188.45
589.206	42804.51
589.565	42929.25
589.925	43096.25
590.284	42867.33
590.643	43021.45
591.003	42933.77
591.362	43087.44
591.721	43116.82
592.08	42956.14
592.44	43056.48
592.799	42931.29
593.158	42835.7
593.517	42791.4
593.876	43059.19
594.235	42840.44
594.593	42923.15
594.952	42924.05
595.311	42750.05
595.67	42991.17
596.029	43148.46
596.387	43093.77
596.746	43045.41
597.104	43031.17
597.463	43045.41
597.822	43181.68
598.18	43168.12
598.538	43055.58
598.897	43163.82
599.255	43034.33
599.613	43507.09
599.972	43183.26
600.33	43165.63
600.688	43121.79
601.046	43135.35
601.404	43441.78
601.762	43361.11
602.12	43504.6
602.478	43356.81
602.836	43518.84
603.194	43235.46
603.552	43425.96
603.91	43349.13
604.268	43476.58
604.625	43557.71
604.983	43792.05
605.341	43481.33
605.698	43717.93
606.056	43889.91
606.413	43734.2
606.771	43949.79
607.128	43986.17
607.485	43780.98
607.843	43818.49
608.2	43938.49
608.557	44159.5
608.914	43966.74
609.272	44250.57
609.629	44393.17
609.986	44479.27
610.343	44395.65
610.7	44665.03
611.057	44365.15
611.414	44510.45
611.771	44722.2
612.127	44808.07
612.484	44694.18
612.841	44889.65
613.198	44901.63
613.554	44591.13
613.911	45117.67
614.267	45074.73
614.624	44971.46
614.98	45206.93
615.337	45307.04
615.693	45319.7
616.05	45319.7
616.406	45543.42
616.762	45436.08
617.118	45279.02
617.475	45364.67
617.831	45596.08
618.187	45483.99
618.543	45615.74
618.899	45829.52
619.255	45868.61
619.611	45644.66
619.967	45878.55
620.323	46070.86
620.678	45936.63
621.034	45862.73
621.39	45803.08
621.746	45876.52
622.101	46206.23
622.457	45936.18
622.812	46112.45
623.168	46157.87
623.523	46091.66
623.879	46263.85
624.234	46189.05
624.589	46155.83
624.945	46197.19
625.3	46173.91
625.655	46414.13
626.01	46272.89
626.365	46227.24
626.72	46284.64
627.075	46107.25
627.43	46283.06
627.785	46222.73
628.14	46164.42
628.495	46222.95
628.85	46246
629.205	46071.32
629.559	46262.72
629.914	46108.15
630.269	46130.98
630.623	46001.49
630.978	45810.31
631.332	46109.96
631.687	45995.16
632.041	45980.7
632.396	45944.99
632.75	45857.09
633.104	45779.8
633.459	45734.15
633.813	45738.22
634.167	45805.79
634.521	45743.19
634.875	45675.85
635.229	45542.97
635.583	45360.15
635.937	45321.51
636.291	45378.23
636.645	45398.79
636.999	45184.79
637.352	45242.64
637.706	45111.57
638.06	45248.51
638.413	45192.02
638.767	45057.33
639.121	45089.2
639.474	44914.96
639.828	44961.52
640.181	45037.9
640.534	44983.89
640.888	44838.81
641.241	44645.37
641.594	44732.82
641.947	44882.2
642.301	44701.64
642.654	44825.47
643.007	44655.31
643.36	44595.2
643.713	44600.4
644.066	44727.62
644.419	44490.34
644.771	44028.88
645.124	43651.72
645.477	43636.58
645.83	43536.47
646.182	43552.29
646.535	43487.66
646.888	43626.18
647.24	43550.93
647.593	43546.41
647.945	43381.67
648.298	43359.98
648.65	43158.85
649.002	42927.44
649.355	42806.32
649.707	42611.29
650.059	42724.06
650.411	43334.44
650.763	43598.39
651.115	44030.24
651.467	43845.61
651.819	43985.72
652.171	43853.75
652.523	43694.43
652.875	43839.96
653.227	43559.52
653.578	43943.01
653.93	43757.48
654.282	43658.27
654.633	43639.29
654.985	43647.2
655.337	43607.43
655.688	43702.34
656.039	43792.05
656.391	43380.77
656.742	43633.64
657.094	43569.46
657.445	43645.17
657.796	43657.6
658.147	43543.02
658.498	43702.34
658.849	43837.03
659.2	43664.83
659.551	43530.14
659.902	43973.29
660.253	43618.95
660.604	43872.05
660.955	43625.05
661.306	43775.11
661.656	43635.22
662.007	43698.05
662.358	43789.12
662.708	43686.07
663.059	43610.82
663.409	43423.7
663.76	43702.57
664.11	43804.26
664.461	43832.96
664.811	43920.86
665.161	43865.95
665.511	43746.18
665.862	43769.46
666.212	43933.52
666.562	43894.42
666.912	43759.97
667.262	43670.25
667.612	43632.06
667.962	43642
668.312	43710.25
668.662	43852.62
669.011	43755.9
669.361	43679.74
669.711	43710.25
670.06	43830.25
670.41	43614.43
670.76	43630.48
671.109	43846.74
671.459	43696.24
671.808	43614.21
672.157	43590.48
672.507	43380.54
672.856	43463.48
673.205	43475.9
673.554	43591.16
673.904	43457.6
674.253	43629.57
674.602	43480.42
674.951	42923.83
675.3	42806.77
675.649	43445.62
675.998	43403.36
676.346	43418.05
676.695	43414.44
677.044	43128.57
677.393	43178.06
677.741	43435.91
678.09	43264.16
678.438	43113.65
678.787	43233.88
679.135	43305.06
679.484	42940.33
679.832	43109.36
680.181	42974
680.529	42998.86
680.877	42850.61
681.225	42841.35
681.573	43167.66
681.922	42752.31
682.27	42797.5
682.618	42587.79
682.966	42605.19
683.314	42494.69
683.661	42430.96
684.009	42347.12
684.357	42206.79
684.705	42246.11
685.053	42202.27
685.4	42047.47
685.748	41826.23
686.095	41950.75
686.443	41715.05
686.79	41786.68
687.138	41935.83
687.485	41711.21
687.832	41656.07
688.18	41476.64
688.527	41275.96
688.874	41248.84
689.221	41209.07
689.568	40936.08
689.915	40945.8
690.262	40904.22
690.609	40712.81
690.956	40511.46
691.303	40523.67
691.65	40279.6
691.997	40330.22
692.344	40075.32
692.69	40128.87
693.037	40010.01
693.383	39603.01
693.73	39770.47
694.077	39514.65
694.423	39453.64
694.769	39325.96
695.116	39346.07
695.462	39082.35
695.808	38894.33
696.155	39000.09
696.501	38477.62
696.847	38665.18
697.193	38356.49
697.539	38465.64
697.885	38168.25
698.231	37996.73
698.577	37947.46
698.923	37837.64
699.269	37753.34
699.614	37492.33
699.96	37339.57
700.306	37315.84
700.651	37308.61
700.997	37133.47
701.342	37047.6
701.688	36994.72
702.033	36748.17
702.379	36710.21
702.724	36516.99
703.069	36539.82
703.415	36192.93
703.76	36206.72
704.105	36213.72
704.45	35961.98
704.795	35837.24
705.14	35728.99
705.485	35629.11
705.83	35594.08
706.175	35644.02
706.52	35498.49
706.865	35225.95
707.209	35180.98
707.554	34975.79
707.899	35076.13
708.243	34873.42
708.588	34918.39
708.932	34609.92
709.277	34755.91
709.621	34553.88
709.966	34387.56
710.31	34495.35
710.654	34097.62
710.998	34197.28
711.342	34237.96
711.687	34058.07
712.031	34011.29
712.375	33760.23
712.719	33908.02
713.063	33786.89
713.407	33892.43
713.75	33645.65
714.094	33745.09
714.438	33457.41
714.782	33495.83
715.125	33300.13
715.469	33594.36
715.812	33240.47
716.156	33143.97
716.499	33089.96
716.843	33139.91
717.186	32905.11
717.53	33218.55
717.873	33132
718.216	32947.14
718.559	32908.05
718.902	32663.76
719.246	32732.46
719.589	32616.3
719.932	32548.73
720.275	32543.76
720.617	32617.66
720.96	32530.43
721.303	32479.81
721.646	32442.3
721.989	32355.52
722.331	32388.51
722.674	32383.54
723.016	32333.15
723.359	32244.56
723.701	32290.44
724.044	32166.37
724.386	32030.1
724.729	32246.14
725.071	32106.94
725.413	32065.36
725.755	32053.38
726.097	32047.5
726.439	32023.1
726.782	31929.09
727.124	32097
727.465	31965.02
727.807	31752.6
728.149	31997.34
728.491	31828.53
728.833	31825.82
729.175	31896.1
729.516	31856.32
729.858	31894.74
730.199	31903.33
730.541	31830.79
730.882	31902.2
731.224	31934.51
731.565	31734.29
731.906	31907.62
732.248	31774.52
732.589	31730
732.93	31584.69
733.271	31794.63
733.612	31735.42
733.953	31784.69
734.294	31754.63
734.635	31573.62
734.976	31828.53
735.317	31757.12
735.658	31686.16
735.999	31718.47
736.339	31783.56
736.68	31950.78
737.021	31693.84
737.361	31702.88
737.702	31877.11
738.042	31802.77
738.383	31852.93
738.723	32038.47
739.063	31824.91
739.404	32021.74
739.744	32009.99
740.084	31881.41
740.424	31964.57
740.764	31938.36
741.104	32186.26
741.444	31935.19
741.784	31934.74
742.124	32075.07
742.464	32057.9
742.804	32211.34
743.143	32344.45
743.483	32334.73
743.823	32135.41
744.162	32199.14
744.502	32365.91
744.841	32238.01
745.181	32614.27
745.52	32471.45
745.86	32477.32
746.199	32595.74
746.538	32592.12
746.877	32873.92
747.216	32746.24
747.556	32804.1
747.895	32921.38
748.234	32856.75
748.573	32928.61
748.911	33057.2
749.25	33044.54
749.589	33002.06
749.928	33204.31
750.267	33240.69
750.605	33244.31
750.944	33363.4
751.283	33308.94
751.621	33531.99
751.96	33306.23
752.298	33570.18
752.636	33610.18
752.975	33623.73
753.313	33639.55
753.651	33886.55
753.989	33952.09
754.327	34070.28
754.666	33744.18
755.004	34047.45
755.342	34141.91
755.679	34248.8
756.017	34092.42
756.355	34210.39
756.693	34332.42
757.031	34438.18
757.368	34284.96
757.706	34394.11
758.044	34321.8
758.381	34495.35
758.719	34600.21
759.056	34686.76
759.394	34726.98
759.731	34453.77
760.068	34562.24
760.405	34624.84
760.743	34515.46
761.08	34773.99
761.417	34557.5
761.754	34663.48
762.091	34629.13
762.428	34547.33
762.765	34583.71
763.102	34691.28
763.438	34644.72
763.775	34437.72
764.112	34733.54
764.449	34693.31
764.785	34611.05
765.122	34429.14
765.458	34395.24
765.795	34543.94
766.131	34542.35
766.467	34539.87
766.804	34266.88
767.14	34148.24
767.476	34127.68
767.812	34061.01
768.148	34303.49
768.485	34108.24
768.821	33917.74
769.157	33980.34
769.492	33813.56
769.828	33922.94
770.164	33620.12
770.5	33470.07
770.836	33597.52
771.171	33545.32
771.507	33484.53
771.842	33203.41
772.178	33316.4
772.513	33291.54
772.849	33163.63
773.184	33149.62
773.519	33121.6
773.855	32876.41
774.19	33042.73
774.525	32805.9
774.86	32870.08
775.195	32642.97
775.53	32553.03
775.865	32291.11
776.2	32233.26
776.535	32105.36
776.87	32034.4
777.205	31891.8
777.539	31892.48
777.874	31997.79
778.209	31686.38
778.543	31721.41
778.878	31374.08
779.212	31437.35
779.547	31345.38
779.881	31373.62
780.215	31027.87
780.55	31113.74
780.884	30934.77
781.218	30786.3
781.552	30765.5
781.886	30676.92
782.22	30536.58
782.554	30388.57
782.888	30158.51
783.222	30102.7
783.556	30080.32
783.889	29894.57
784.223	29663.39
784.557	29746.32
784.89	29823.83
785.224	29531.86
785.557	29398.31
785.891	29483.73
786.224	29303.62
786.558	29383.62
786.891	29130.97
787.224	28874.25
787.557	28869.74
787.891	28846.46
788.224	28670.87
788.557	28656.63
788.89	28690.53
789.223	28672.9
789.556	28310.88
789.888	28296.64
790.221	28249.64
790.554	28009.19
790.887	28002.41
791.219	27959.02
791.552	27850.1
791.884	27657.11
792.217	27634.74
792.549	27514.29
792.882	27355.2
793.214	27194.98
793.546	27336.67
793.879	27112.72
794.211	26904.82
794.543	27090.35
794.875	26945.72
795.207	26856
795.539	26788.89
795.871	26756.12
796.203	26677.25
796.535	26438.84
796.867	26574.65
797.198	26352.06
797.53	26256.7
797.862	26093.09
798.193	26240.65
798.525	26026.87
798.856	26053.54
799.188	25761.57
799.519	25751.85
799.85	25516.15
800.182	25659.42
800.513	25663.49
800.844	25238.19
801.175	25508.69
801.506	25401.35
801.837	25288.36
802.168	25156.61
802.499	25224.63
802.83	25025.77
803.161	24847.47
803.491	24916.17
803.822	24981.7
804.153	24781.93
804.483	24621.94
804.814	24525.89
805.145	24641.37
805.475	24476.4
805.805	24469.17
806.136	24406.35
806.466	24364.09
806.796	24323.19
807.126	24093.36
807.457	24070.77
807.787	24112.57
808.117	23913.48
808.447	24002.29
808.777	23985.34
809.107	23787.38
809.436	23712.81
809.766	23767.95
810.096	23695.63
810.426	23584.9
810.755	23586.48
811.085	23566.15
811.414	23576.32
811.744	23403.21
812.073	23362.76
812.403	23220.17
812.732	23169.09
813.061	23309.88
813.39	22991.02
813.719	23064.92
814.049	23262.65
814.378	23054.52
814.707	22905.6
815.036	22918.25
815.365	22672.84
815.693	22673.51
816.022	22672.61
816.351	22586.06
816.68	22590.8
817.008	22534.53
817.337	22341.09
817.665	22392.62
817.994	22301.09
818.322	22449.34
818.651	22245.28
818.979	22214.77
819.307	22277.37
819.636	22230.36
819.964	22134.55
820.292	22220.87
820.62	22043.25
820.948	22100.87
821.276	22237.82
821.604	22144.26
821.932	22309.68
822.259	22083.47
822.587	22054.32
822.915	21977.04
823.243	22217.93
823.57	21956.02
823.898	22195.56
824.225	22038.95
824.553	21977.71
824.88	22160.53
825.207	22146.52
825.535	22013.64
825.862	22139.52
826.189	22144.04
826.516	22242.79
826.843	22260.64
827.17	22137.48
827.497	22186.07
827.824	22152.17
828.151	22146.97
828.478	22189.01
828.805	22236.46
829.131	22216.35
829.458	22167.31
829.785	22043.25
830.111	22024.72
830.438	22187.65
830.764	22053.42
831.09	22178.61
831.417	22015.68
831.743	22210.48
832.069	22142
832.395	22016.58
832.722	22077.82
833.048	22044.83
833.374	22064.26
833.7	22017.49
834.026	21978.17
834.351	22043.93
834.677	21994.21
835.003	21899.98
835.329	21946.53
835.654	21960.76
835.98	21873.08
836.306	21902.01
836.631	21789.24
836.956	21907.88
837.282	21743.14
837.607	21736.36
837.932	21704.05
838.258	21640.77
838.583	21676.03
838.908	21515.13
839.233	21668.12
839.558	21642.35
839.883	21507.89
840.208	21342.25
840.533	21436.48
840.858	21407.56
841.182	21431.96
841.507	21322.36
841.832	21275.58
842.156	21277.62
842.481	21158.07
842.805	21158.3
843.13	21169.37
843.454	21118.75
843.778	21102.48
844.103	21090.5
844.427	20956.95
844.751	20996.04
845.075	20894.35
845.399	20778.42
845.723	20738.65
846.047	20807.12
846.371	20599.44
846.695	20508.6
847.019	20556.73
847.343	20358.77
847.666	20317.87
847.99	20201.94
848.313	20068.38
848.637	20169.17
848.96	20050.53
849.284	20036.3
849.607	19873.14
849.931	19794.04
850.254	19751.1
850.577	19570.09
850.9	19485.35
851.223	19507.95
851.546	19396.54
851.869	19241.29
852.192	19386.14
852.515	19220.27
852.838	19102.53
853.161	19041.29
853.483	18973.05
853.806	18943.67
854.129	18947.28
854.451	18910.9
854.774	18735.76
855.096	18588.42
855.419	18633.85
855.741	18560.85
856.063	18521.53
856.385	18479.95
856.708	18458.71
857.03	18296.23
857.352	18347.53
857.674	18327.87
857.996	18262.1
858.318	18007.65
858.64	18121.09
858.961	18045.61
859.283	18047.65
859.605	17939.85
859.926	17921.32
860.248	17818.27
860.57	17839.06
860.891	17814.43
861.212	17808.33
861.534	17668.45
861.855	17514.55
862.176	17667.32
862.498	17580.54
862.819	17566.08
863.14	17518.17
863.461	17500.32
863.782	17444.05
864.103	17404.95
864.424	17341.9
864.745	17429.36
865.065	17204.73
865.386	17170.61
865.707	17213.32
866.027	17209.48
866.348	17100.33
866.668	17143.04
866.989	17084.73
867.309	16926.32
867.63	17116.37
867.95	17006.77
868.27	16823.95
868.59	16956.6
868.91	16829.15
869.23	16971.29
869.55	16769.04
869.87	16849.71
870.19	16776.04
870.51	16882.03
870.83	16726.78
871.15	16630.74
871.469	16631.64
871.789	16741.47
872.109	16714.12
872.428	16672.99
872.748	16610.62
873.067	16576.5
873.386	16633.45
873.706	16526.33
874.025	16413.57
874.344	16448.37
874.663	16417.63
874.982	16428.25
875.301	16330.63
875.62	16289.95
875.939	16309.16
876.258	16338.09
876.577	16212.44
876.896	16259.67
877.214	16138.32
877.533	16170.41
877.852	16064.2
878.17	16060.81
878.489	16247.24
878.807	16073.01
879.125	16111.43
879.444	15955.05
879.762	15938.32
880.08	15997.98
880.398	15965.89
880.716	15949.17
881.034	15880.47
881.352	15868.72
881.67	15819
881.988	15818.55
882.306	15706.92
882.624	15668.95
882.941	15659.46
883.259	15529.75
883.577	15512.57
883.894	15544.21
884.212	15540.82
884.529	15542.18
884.846	15484.55
885.164	15445.68
885.481	15389.41
885.798	15365.68
886.115	15211.79
886.432	15300.6
886.75	15279.13
887.067	15360.03
887.383	15269.19
887.7	15228.96
888.017	14968.63
888.334	15072.13
888.651	15023.77
888.967	14987.16
889.284	14978.12
889.6	14889.99
889.917	14905.36
890.233	14843.44
890.55	14890.89
890.866	14784.23
891.182	14746.49
891.498	14680.05
891.815	14546.04
892.131	14567.96
892.447	14509.89
892.763	14494.52
893.079	14447.74
893.395	14473.5
893.71	14398.48
894.026	14311.47
894.342	14253.85
894.657	14126.17
894.973	14205.71
895.289	14163.68
895.604	14160.07
895.92	14058.37
896.235	14017.24
896.55	14111.71
896.865	13972.5
897.181	13880.3
897.496	13857.7
897.811	13866.29
898.126	13770.25
898.441	13739.96
898.756	13723.92
899.071	13601.89
899.386	13579.06
899.7	13530.93
900.015	13407.99
900.33	13386.07
900.644	13321.44
900.959	13340.88
901.273	13328.45
901.588	13240.54
901.902	13188.79
902.216	13135.69
902.531	13052.75
902.845	13033.32
903.159	12969.59
903.473	12930.27
903.787	12826.32
904.101	12733.66
904.415	12887.78
904.729	12787.45
905.042	12722.14
905.356	12605.08
905.67	12677.17
905.984	12553.1
906.297	12507.68
906.611	12420.9
906.924	12406.89
907.237	12348.59
907.551	12351.53
907.864	12329.38
908.177	12231.3
908.491	12194.02
908.804	12083.96
909.117	12092.1
909.43	11966.9
909.743	11936.85
910.056	11966.45
910.368	11909.73
910.681	11803.07
910.994	11846
911.307	11711.77
911.619	11643.97
911.932	11639.68
912.244	11589.51
912.557	11432
912.869	11479.01
913.181	11524.88
913.494	11433.36
913.806	11348.16
914.118	11305
914.43	11245.57
914.742	11248.73
915.054	11131.67
915.366	11132.57
915.678	11068.62
915.99	10977.78
916.302	10982.07
916.613	10907.04
916.925	10914.95
917.236	10879.47
917.548	10847.16
917.859	10706.37
918.171	10729.2
918.482	10687.16
918.794	10611.01
919.105	10571.23
919.416	10492.37
919.727	10516.55
920.038	10474.74
920.349	10373.5
920.66	10331.24
920.971	10356.55
921.282	10313.61
921.593	10229.32
921.903	10125.6
922.214	10165.14
922.525	10101.64
922.835	10051.02
923.146	10070.68
923.456	9943.45
923.767	9949.1
924.077	9914.3
924.387	9806.96
924.697	9858.48
925.008	9785.72
925.318	9796.34
925.628	9702.33
925.938	9713.85
926.248	9592.05
926.558	9554.54
926.867	9596.34
927.177	9568.55
927.487	9529.23
927.796	9391.6
928.106	9378.95
928.416	9312.96
928.725	9338.05
929.034	9252.4
929.344	9286.3
929.653	9220.99
929.962	9110.25
930.271	9107.99
930.581	9060.76
930.89	8983.7
931.199	8945.74
931.508	8927.43
931.817	8879.98
932.125	8886.31
932.434	8840.66
932.743	8752.3
933.051	8696.25
933.36	8720.66
933.669	8675.46
933.977	8623.94
934.286	8578.29
934.594	8529.48
934.902	8559.99
935.21	8479.54
935.519	8407.67
935.827	8402.02
936.135	8334.68
936.443	8284.51
936.751	8326.77
937.059	8189.38
937.367	8206.1
937.674	8181.01
937.982	8199.09
938.29	8181.01
938.597	8059.66
938.905	8070.51
939.213	8011.98
939.52	8002.71
939.827	7989.61
940.135	7910.51
940.442	7902.15
940.749	7900.8
941.056	7811.31
941.363	7733.57
941.67	7711.65
941.977	7683.63
942.284	7644.3
942.591	7666.9
942.898	7631.65
943.205	7581.93
943.511	7561.59
943.818	7518.66
944.125	7491.09
944.431	7456.74
944.738	7425.55
945.044	7303.97
945.35	7289.51
945.657	7262.85
945.963	7339.91
946.269	7209.74
946.575	7263.07
946.881	7153.02
947.187	7105.56
947.493	7104.66
947.799	7075.28
948.105	7078.22
948.41	6993.93
948.716	7016.52
949.022	6913.48
949.327	6948.05
949.633	6817.89
949.938	6818.79
950.244	6886.58
950.549	6767.72
950.854	6726.59
951.16	6757.32
951.465	6676.42
951.77	6707.15
952.075	6657.89
952.38	6608.17
952.685	6595.74
952.99	6573.15
953.294	6527.95
953.599	6499.02
953.904	6461.96
954.209	6377.9
954.513	6476.2
954.818	6390.55
955.122	6363.66
955.426	6326.6
955.731	6300.16
956.035	6284.34
956.339	6281.18
956.643	6225.13
956.948	6186.94
957.252	6213.61
957.556	6154.4
957.86	6172.93
958.163	6140.84
958.467	6090.67
958.771	6028.3
959.075	6047.74
959.378	5997.79
959.682	5962.99
959.985	5951.69
960.289	5904.01
960.592	5849.78
960.896	5840.74
961.199	5827.86
961.502	5827.18
961.805	5783.56
962.108	5731.36
962.411	5746.28
962.714	5685.49
963.017	5643
963.32	5632.83
963.623	5627.18
963.926	5641.65
964.228	5604.13
964.531	5567.75
964.833	5568.2
965.136	5513.97
965.438	5471.93
965.741	5452.95
966.043	5432.39
966.345	5376.79
966.648	5355.55
966.95	5319.39
967.252	5318.04
967.554	5313.07
967.856	5280.07
968.158	5256.8
968.46	5242.56
968.761	5223.13
969.063	5223.8
969.365	5166.4
969.666	5140.42
969.968	5083.69
970.269	5103.13
970.571	5090.93
970.872	5112.85
971.174	5030.59
971.475	5054.99
971.776	4970.48
972.077	4971.61
972.378	4949.91
972.679	4916.24
972.98	4911.27
973.281	4899.07
973.582	4894.32
973.883	4790.82
974.183	4780.43
974.484	4822.91
974.785	4763.02
975.085	4763.7
975.386	4768.22
975.686	4695
975.986	4694.33
976.287	4676.93
976.587	4614.55
976.887	4568.45
977.187	4589.02
977.487	4547.89
977.787	4571.39
978.087	4559.19
978.387	4543.6
978.687	4496.36
978.987	4443.48
979.286	4452.75
979.586	4460.21
979.885	4400.55
980.185	4426.31
980.484	4349.93
980.784	4349.93
981.083	4338.4
981.382	4272.64
981.682	4290.49
981.981	4259.76
982.28	4269.48
982.579	4258.18
982.878	4248.01
983.177	4205.98
983.475	4177.73
983.774	4124.85
984.073	4108.58
984.372	4112.19
984.67	4110.61
984.969	4110.84
985.267	4071.29
985.566	4088.92
985.864	4017.06
986.162	4016.15
986.461	3975.47
986.759	3974.34
987.057	3956.94
987.355	3970.95
987.653	3931.86
987.951	3854.8
988.249	3892.54
988.547	3869.71
988.844	3814.12
989.142	3867.68
989.44	3777.51
989.737	3744.29
990.035	3782.03
990.332	3760.56
990.63	3733.45
990.927	3721.92
991.224	3709.94
991.521	3721.92
991.819	3656.61
992.116	3620.68
992.413	3637.63
992.71	3579.55
993.006	3612.55
993.303	3604.18
993.6	3527.58
993.897	3535.26
994.193	3529.38
994.49	3484.64
994.787	3507.92
995.083	3443.74
995.379	3444.87
995.676	3444.42
995.972	3396.96
996.268	3431.53
996.565	3416.17
996.861	3331.65
997.157	3349.5
997.453	3332.78
997.749	3298.43
998.044	3302.27
998.34	3290.97
998.636	3292.33
998.932	3274.7
999.227	3238.54
999.523	3244.65
999.818	3174.14
1000.114	3151.09
1000.409	3107.7
1000.704	3158.55
1001	3119.9
1001.295	3073.58
1001.59	3061.37
1001.885	3095.05
1002.18	3032.9
1002.475	3022.05
1002.77	3013.47
1003.065	2985.44
1003.359	2943.41
1003.654	2959.68
1003.949	2915.39
1004.243	2938.89
1004.538	2886.46
1004.832	2919.91
1005.127	2871.55
1005.421	2841.04
1005.715	2836.52
1006.009	2846.24
1006.304	2856.63
1006.598	2777.99
1006.892	2815.28
1007.186	2761.72
1007.48	2763.76
1007.773	2758.56
1008.067	2704.1
1008.361	2679.69
1008.655	2685.11
1008.948	2678.79
1009.242	2651.89
1009.535	2621.39
1009.829	2631.33
1010.122	2623.65
1010.415	2607.37
1010.708	2567.6
1011.001	2539.13
1011.295	2552.69
1011.588	2553.14
1011.881	2542.52
1012.173	2504.55
1012.466	2497.55
1012.759	2473.82
1013.052	2466.59
1013.344	2443.54
1013.637	2396.31
1013.93	2379.81
1014.222	2364.44
1014.514	2364.9
1014.807	2351.11
1015.099	2352.69
1015.391	2348.85
1015.683	2351.79
1015.976	2289.64
1016.268	2254.84
1016.56	2256.88
1016.851	2267.5
1017.143	2244.9
1017.435	2216.42
1017.727	2193.83
1018.018	2194.73
1018.31	2185.92
1018.602	2188.63
1018.893	2154.96
1019.185	2142.3
1019.476	2136.43
1019.767	2100.04
1020.058	2101.85
1020.35	2074.96
1020.641	2046.94
1020.932	2060.72
1021.223	2003.32
1021.514	2031.12
1021.804	2006.49
1022.095	2010.1
1022.386	1991.12
1022.677	1983.21
1022.967	1952.48
1023.258	1921.74
1023.548	1951.57
1023.839	1908.41
1024.129	1938.92
1024.419	1920.84
1024.709	1884.91
1025	1854.17
1025.29	1830.9
1025.58	1854.17
1025.87	1800.39
1026.16	1800.39
1026.449	1785.93
1026.739	1782.09
1027.029	1766.49
1027.319	1754.97
1027.608	1769.66
1027.898	1745.93
1028.187	1751.35
1028.477	1767.17
1028.766	1682.88
1029.055	1689.66
1029.344	1679.72
1029.634	1662.99
1029.923	1675.87
1030.212	1639.49
1030.501	1622.54
1030.79	1625.25
1031.078	1637
1031.367	1574.86
1031.656	1591.81
1031.945	1594.52
1032.233	1573.73
1032.522	1562.66
1032.81	1557.91
1033.099	1542.32
1033.387	1514.52
1033.675	1510.23
1033.963	1507.97
1034.251	1476.78
1034.54	1458.93
1034.828	1479.95
1035.116	1455.54
1035.403	1473.62
1035.691	1436.11
1035.979	1439.04
1036.267	1427.07
1036.554	1403.79
1036.842	1395.43
1037.129	1392.94
1037.417	1377.35
1037.704	1392.72
1037.992	1361.31
1038.279	1354.53
1038.566	1337.58
1038.853	1337.58
1039.14	1337.58
