Data from 583_FLMS001491_010.txt Node
Date: Thu Apr 19 15:43:39 BST 2018
User: hsy
Spectrometer: FLMS00149
Trigger mode: 0
Integration Time (sec): 1.000000E-2
Scans to average: 10
Electric dark correction enabled: true
Nonlinearity correction enabled: false
Boxcar width: 0
XAxis mode: Wavelengths
Number of Pixels in Spectrum: 2048
>>>>>Begin Spectral Data<<<<<
341.393	9.67
341.776	9.67
342.16	9.67
342.543	-62.87
342.927	-72.58
343.31	-47.05
343.693	-67.61
344.077	-63.09
344.46	-56.54
344.843	-71.45
345.226	-23.09
345.61	-15.41
345.993	-28.06
346.376	4.25
346.759	-1.62
347.142	9.9
347.525	32.27
347.908	55.32
348.291	76.79
348.674	95.55
349.057	99.84
349.44	149.56
349.823	160.63
350.206	183.46
350.588	230.46
350.971	246.28
351.354	246.05
351.737	256.9
352.119	306.39
352.502	296.67
352.884	297.58
353.267	324.02
353.65	332.15
354.032	342.77
354.414	331.93
354.797	349.78
355.179	375.99
355.562	363.11
355.944	374.41
356.326	362.66
356.709	373.51
357.091	378.03
357.473	394.98
357.855	397.46
358.238	392.04
358.62	389.33
359.002	387.97
359.384	387.29
359.766	376.9
360.148	378.7
360.53	392.49
360.912	396.56
361.294	370.34
361.676	374.41
362.057	380.06
362.439	356.33
362.821	386.84
363.203	371.25
363.584	392.72
363.966	384.81
364.348	370.57
364.729	379.61
365.111	363.11
365.493	366.73
365.874	379.61
366.256	400.17
366.637	385.26
367.019	368.31
367.4	370.8
367.781	363.34
368.163	361.98
368.544	362.43
368.925	383.22
369.306	385.94
369.688	365.15
370.069	399.27
370.45	373.73
370.831	363.56
371.212	390
371.593	377.8
371.974	367.41
372.355	378.25
372.736	388.2
373.117	395.2
373.498	406.05
373.879	384.13
374.26	357.24
374.641	387.52
375.021	394.75
375.402	385.71
375.783	397.91
376.163	410.79
376.544	395.65
376.925	396.78
377.305	395.65
377.686	389.33
378.066	417.35
378.447	393.17
378.827	416.9
379.208	429.32
379.588	415.77
379.968	417.35
380.349	411.7
380.729	401.53
381.109	424.13
381.489	408.99
381.87	448.31
382.25	429.55
382.63	426.39
383.01	443.11
383.39	444.24
383.77	428.65
384.15	442.66
384.53	447.86
384.91	460.74
385.29	460.96
385.67	456.44
386.049	454.86
386.429	458.7
386.809	456.44
387.189	472.04
387.568	469.55
387.948	473.84
388.328	481.07
388.707	472.04
389.087	497.57
389.466	492.83
389.846	487.4
390.225	480.4
390.605	499.15
390.984	493.05
391.363	499.83
391.743	525.14
392.122	531.24
392.501	524.01
392.881	540.28
393.26	505.48
393.639	537.34
394.018	512.71
394.397	528.53
394.776	529.44
395.155	564.69
395.534	521.3
395.913	510.9
396.292	546.84
396.671	578.25
397.05	562.65
397.429	555.42
397.808	550.23
398.186	548.87
398.565	557.46
398.944	548.87
399.323	586.16
399.701	568.76
400.08	597.46
400.458	583.45
400.837	603.78
401.215	605.14
401.594	583.22
401.972	602.88
402.351	608.08
402.729	615.31
403.107	631.81
403.486	639.71
403.864	613.05
404.242	620.73
404.62	610.11
404.999	638.36
405.377	635.42
405.755	638.81
406.133	670
406.511	642.2
406.889	675.65
407.267	637
407.645	644.91
408.023	656.44
408.401	699.6
408.779	666.38
409.156	677.91
409.534	705.25
409.912	710.45
410.29	724.23
410.667	744.34
411.045	748.19
411.422	735.98
411.8	745.47
412.178	735.53
412.555	754.74
412.933	765.14
413.31	761.75
413.687	796.32
414.065	795.42
414.442	794.74
414.819	820.95
415.197	796.77
415.574	820.95
415.951	823.66
416.328	843.78
416.705	832.93
417.082	827.51
417.46	840.16
417.837	852.82
418.214	879.03
418.591	864.12
418.967	877.67
419.344	891.23
419.721	876.09
420.098	884.91
420.475	891.91
420.852	910.67
421.228	905.7
421.605	909.54
421.982	935.75
422.358	933.04
422.735	949.31
423.111	944.57
423.488	963.32
423.864	969.2
424.241	991.8
424.617	994.51
424.994	978.01
425.37	982.98
425.746	973.27
426.123	993.6
426.499	1027.5
426.875	1042.42
427.251	1056.43
427.627	1028.41
428.003	1052.13
428.379	1053.72
428.756	1074.73
429.132	1104.56
429.507	1116.99
429.883	1097.56
430.259	1117.67
430.635	1142.53
431.011	1153.15
431.387	1171.45
431.763	1181.62
432.138	1185.69
432.514	1198.12
432.89	1224.11
433.265	1255.97
433.641	1253.26
434.016	1261.62
434.392	1272.24
434.767	1259.13
435.143	1294.61
435.518	1294.61
435.894	1320.37
436.269	1326.02
436.644	1336.65
437.02	1344.1
437.395	1367.38
437.77	1381.84
438.145	1429.52
438.52	1385.91
438.895	1460.71
439.271	1418.45
439.646	1443.76
440.021	1472.01
440.395	1425.23
440.77	1443.76
441.145	1459.13
441.52	1490.54
441.895	1502.97
442.27	1483.53
442.645	1502.52
443.019	1523.76
443.394	1520.6
443.769	1513.59
444.143	1534.38
444.518	1519.47
444.892	1553.59
445.267	1579.13
445.641	1578.22
446.016	1612.8
446.39	1630.42
446.764	1609.63
447.139	1630.2
447.513	1616.64
447.887	1642.63
448.262	1654.83
448.636	1643.98
449.01	1679.24
449.384	1707.94
449.758	1691.21
450.132	1714.94
450.506	1771.89
450.88	1741.38
451.254	1778.67
451.628	1800.81
452.002	1754.94
452.376	1815.5
452.75	1826.8
453.123	1830.87
453.497	1837.88
453.871	1868.16
454.244	1944.09
454.618	1929.85
454.992	1968.27
455.365	2006.23
455.739	1981.37
456.112	2014.59
456.486	2077.64
456.859	2066.8
457.232	2100.47
457.606	2115.61
457.979	2149.51
458.352	2186.79
458.725	2195.61
459.099	2201.26
459.472	2266.79
459.845	2311.99
460.218	2294.36
460.591	2306.79
460.964	2351.53
461.337	2342.72
461.71	2431.98
462.083	2457.29
462.456	2480.8
462.829	2482.15
463.201	2520.12
463.574	2534.13
463.947	2582.71
464.32	2587.91
464.692	2646.44
465.065	2643.73
465.438	2719.66
465.81	2737.29
466.183	2720.11
466.555	2788.36
466.928	2787
467.3	2808.92
467.672	2844.85
468.045	2934.57
468.417	2894.12
468.789	2949.48
469.161	3001.01
469.534	3020.22
469.906	3068.58
470.278	3120.55
470.65	3147.45
471.022	3212.3
471.394	3233.09
471.766	3233.09
472.138	3371.17
472.51	3387.21
472.882	3450.26
473.253	3445.06
473.625	3565.97
473.997	3557.15
474.369	3669.69
474.74	3691.84
475.112	3732.97
475.484	3777.94
475.855	3845.05
476.227	3904.49
476.598	4026.07
476.97	4043.69
477.341	4125.27
477.713	4184.93
478.084	4227.19
478.455	4372.72
478.827	4393.51
479.198	4499.05
479.569	4587.18
479.94	4678.7
480.311	4727.52
480.682	4881.41
481.053	4958.47
481.424	5050.67
481.795	5095.87
482.166	5218.8
482.537	5303.55
482.908	5391.91
483.279	5497.89
483.65	5606.14
484.021	5723.42
484.391	5834.83
484.762	5925.9
485.133	5953.7
485.503	6070.76
485.874	6202.73
486.244	6336.29
486.615	6468.94
486.985	6571.54
487.356	6688.14
487.726	6849.95
488.097	7019.66
488.467	7094.91
488.837	7284.51
489.207	7339.2
489.578	7609.48
489.948	7686.08
490.318	7875.23
490.688	7908
491.058	8129.24
491.428	8317.48
491.798	8482.9
492.168	8671.82
492.538	8762.67
492.908	8904.13
493.278	9091.7
493.648	9266.38
494.017	9415.3
494.387	9628.18
494.757	9741.85
495.126	9991.79
495.496	10114.04
495.866	10293.7
496.235	10541.6
496.605	10784.98
496.974	10850.75
497.344	11034.47
497.713	11298.19
498.082	11356.95
498.452	11609.82
498.821	11785.41
499.19	11921.9
499.559	12223.82
499.928	12448.67
500.298	12620.19
500.667	12905.16
501.036	13001.42
501.405	13234.19
501.774	13352.83
502.143	13665.81
502.512	13963.66
502.88	14154.39
503.249	14264.44
503.618	14558.44
503.987	14753.69
504.356	15051.31
504.724	15257.86
505.093	15481.13
505.462	15792.99
505.83	15882.03
506.199	16171.96
506.567	16505.96
506.936	16656.47
507.304	16967.42
507.672	17113.63
508.041	17406.05
508.409	17606.95
508.777	17860.73
509.145	18210.78
509.514	18324
509.882	18648.05
510.25	18847.15
510.618	19140.92
510.986	19170.53
511.354	19366.68
511.722	19833.33
512.09	20160.56
512.458	20044.4
512.826	20522.36
513.193	20621.34
513.561	20982.23
513.929	21069.01
514.297	21424.03
514.664	21494.08
515.032	21765.26
515.4	22113.05
515.767	22332.03
516.135	22434.17
516.502	22439.37
516.869	22950.99
517.237	23113.93
517.604	23091.33
517.972	23485.67
518.339	23671.88
518.706	23876.84
519.073	24015.37
519.44	24209.04
519.808	24587.11
520.175	24633.89
520.542	24977.38
520.909	25137.83
521.276	25368.78
521.643	25673.63
522.009	25742.11
522.376	26111.14
522.743	26252.83
523.11	26547.06
523.477	26853.04
523.843	26814.85
524.21	27340.48
524.577	27495.51
524.943	27742.51
525.31	27848.94
525.676	28208.03
526.043	28425.2
526.409	28642.37
526.776	28875.36
527.142	28961.68
527.508	29225.4
527.874	29526.41
528.241	29581.1
528.607	29867.42
528.973	30234.19
529.339	30103.8
529.705	30641.86
530.071	30656.55
530.437	30879.6
530.803	31110.1
531.169	31316.87
531.535	31299.93
531.901	31412.01
532.267	31659.69
532.632	31853.13
532.998	31878.89
533.364	32233.91
533.73	32184.42
534.095	32537.86
534.461	32535.15
534.826	32631.87
535.192	32912.31
535.557	33027.11
535.923	33038.18
536.288	33186.43
536.653	33269.59
537.019	33385.97
537.384	33595.46
537.749	33615.34
538.114	33736.47
538.479	33722.91
538.845	33831.61
539.21	33837.49
539.575	33850.59
539.94	33930.14
540.305	34174.88
540.67	34204.03
541.034	34315.21
541.399	34343.46
541.764	34534.42
542.129	34567.41
542.494	34629.1
542.858	34730.57
543.223	34606.96
543.587	34917.01
543.952	34875.65
544.316	35027.29
544.681	34905.71
545.045	35178.69
545.41	35301.4
545.774	35235.42
546.138	35155.64
546.503	35267.5
546.867	35358.58
547.231	35438.12
547.595	35688.06
547.959	35714.05
548.324	35704.33
548.688	35801.73
549.052	35830.65
549.416	35840.15
549.779	35955.85
550.143	36081.49
550.507	36352.22
550.871	36276.29
551.235	36209.63
551.599	36490.52
551.962	36641.93
552.326	36615.72
552.689	36687.58
553.053	36568.94
553.417	36744.3
553.78	37021.81
554.143	36978.65
554.507	37097.06
554.87	37246.89
555.234	37468.58
555.597	37185.87
555.96	37438.07
556.323	37507.45
556.686	37577.27
557.05	37823.37
557.413	37858.4
557.776	37852.75
558.139	38031.73
558.502	38200.31
558.865	38114.44
559.228	38505.16
559.59	38438.04
559.953	38465.61
560.316	38859.95
560.679	38909.89
561.041	38978.37
561.404	39352.14
561.767	39475.98
562.129	39472.82
562.492	39663.1
562.854	39716.2
563.217	39567.96
563.579	39834.84
563.941	40015.85
564.304	40051.11
564.666	40439.8
565.028	40386.69
565.39	40559.34
565.753	40821.03
566.115	40762.05
566.477	40906
566.839	41150.29
567.201	41474.12
567.563	41355.93
567.925	41518.19
568.287	41617.17
568.648	41745.53
569.01	41950.94
569.372	42219.19
569.734	42209.47
570.095	42453.76
570.457	42478.61
570.819	42554.77
571.18	42552.06
571.542	42958.6
571.903	42832.05
572.265	43078.82
572.626	43244.47
572.987	43213.28
573.349	43405.82
573.71	43436.56
574.071	43705.48
574.432	43657.79
574.794	43938.24
575.155	44064.34
575.516	43865.02
575.877	44030.66
576.238	44027.73
576.599	44207.83
576.96	44264.1
577.32	44415.74
577.681	44272.69
578.042	44497.77
578.403	44470.88
578.763	44415.29
579.124	44570.99
579.485	44796.75
579.845	44747.26
580.206	44687.14
580.566	44742.28
580.927	44718.33
581.287	44900.92
581.648	44700.93
582.008	44886.69
582.368	44872.45
582.728	44910.64
583.089	44936.4
583.449	44857.08
583.809	44865.22
584.169	45048.94
584.529	44886.01
584.889	45090.75
585.249	44861.15
585.609	44774.37
585.969	45015.95
586.329	45007.36
586.688	45007.14
587.048	44964.88
587.408	44847.82
587.768	44996.29
588.127	44875.39
588.487	44810.08
588.846	45041.71
589.206	44474.95
589.565	44645.11
589.925	44948.38
590.284	44776.41
590.643	44848.72
591.003	44745.22
591.362	45112.67
591.721	44884.65
592.08	44803.53
592.44	45018.66
592.799	44743.41
593.158	44987.7
593.517	44808.04
593.876	45017.98
594.235	44745.45
594.593	44873.13
594.952	44832
595.311	44874.94
595.67	44884.88
596.029	45038.1
596.387	45010.75
596.746	45213.23
597.104	44936.86
597.463	44852.79
597.822	45083.52
598.18	44870.87
598.538	45017.98
598.897	45155.83
599.255	44953.58
599.613	45398.09
599.972	45097.3
600.33	45236.06
600.688	45153.57
601.046	45316.28
601.404	45358.99
601.762	45426.11
602.12	45463.39
602.478	45459.33
602.836	45439.21
603.194	45268.82
603.552	45470.63
603.91	45483.73
604.268	45536.39
604.625	45450.97
604.983	45542.04
605.341	45437.86
605.698	45658.19
606.056	45826.32
606.413	45644.86
606.771	45879.66
607.128	45899.99
607.485	45820
607.843	45861.8
608.2	46041.46
608.557	46112.42
608.914	46130.72
609.272	46144.51
609.629	46310.83
609.986	46452.97
610.343	46285.97
610.7	46611.39
611.057	46455.23
611.414	46474.89
611.771	46678.96
612.127	46750.14
612.484	46687.09
612.841	46836.01
613.198	46635.34
613.554	46692.97
613.911	46986.52
614.267	46949.46
614.624	46756.02
614.98	47012.73
615.337	47257.02
615.693	47146.74
616.05	47179.96
616.406	47500.4
616.762	47210.24
617.118	47394.64
617.475	47269.45
617.831	47516.67
618.187	47603.9
618.543	47617.91
618.899	47906.27
619.255	47836.21
619.611	47723.9
619.967	47831.02
620.323	47915.08
620.678	47726.16
621.034	47676.22
621.39	47700.17
621.746	47697.91
622.101	48179.26
622.457	47823.78
622.812	48046.38
623.168	48063.33
623.523	47976.55
623.879	48099.71
624.234	47962.09
624.589	48121.63
624.945	48082.99
625.3	48084.34
625.655	48084.79
626.01	48170.67
626.365	48199.59
626.72	48033.27
627.075	48113.27
627.43	48057.9
627.785	47939.94
628.14	48096.32
628.495	48129.09
628.85	48179.48
629.205	48014.51
629.559	48209.76
629.914	47958.7
630.269	48141.06
630.623	47886.83
630.978	47813.84
631.332	48066.26
631.687	47974.52
632.041	47913.5
632.396	47869.66
632.75	47814.97
633.104	47778.14
633.459	47527.3
633.813	47555.09
634.167	47480.97
634.521	47567.29
634.875	47629.67
635.229	47563.9
635.583	47330.24
635.937	47285.04
636.291	47308.54
636.645	47340.86
636.999	47089.57
637.352	47313.06
637.706	46956.01
638.06	47136.12
638.413	46906.75
638.767	46861.55
639.121	46958.27
639.474	46850.93
639.828	46785.17
640.181	46802.57
640.534	46944.49
640.888	46611.61
641.241	46523.03
641.594	46550.37
641.947	46600.31
642.301	46410.04
642.654	46591.5
643.007	46425.4
643.36	46576.81
643.713	46485.97
644.066	46691.39
644.419	46254.11
644.771	46018.63
645.124	45532.55
645.477	45497.52
645.83	45479.21
646.182	45479.21
646.535	45238.77
646.888	45568.03
647.24	45310.4
647.593	45597.18
647.945	45460.01
648.298	45318.31
648.65	45039.9
649.002	44839.91
649.355	44783.64
649.707	44655.28
650.059	44630.42
650.411	45133.46
650.763	45349.95
651.115	45999.43
651.467	45798.53
651.819	45775.48
652.171	45885.08
652.523	45851.63
652.875	45750.85
653.227	45662.26
653.578	46037.62
653.93	45838.53
654.282	45532.77
654.633	45551.3
654.985	45586.1
655.337	45544.75
655.688	45603.96
656.039	45777.29
656.391	45222.95
656.742	45515.82
657.094	45408.26
657.445	45412.77
657.796	45481.7
658.147	45497.29
658.498	45511.76
658.849	45646.44
659.2	45456.84
659.551	45272.89
659.902	45583.62
660.253	45487.12
660.604	45594.24
660.955	45367.13
661.306	45678.76
661.656	45459.33
662.007	45672.88
662.358	45551.08
662.708	45766.89
663.059	45528.7
663.409	45503.39
663.76	45536.16
664.11	45702.48
664.461	45717.4
664.811	45576.61
665.161	45676.27
665.511	45664.75
665.862	45749.04
666.212	45767.57
666.562	45774.57
666.912	45696.84
667.262	45566.22
667.612	45535.26
667.962	45684.41
668.312	45559.21
668.662	45820.45
669.011	45758.98
669.361	45636.72
669.711	45728.47
670.06	45627.68
670.41	45467.69
670.76	45637.85
671.109	45692.32
671.459	45588.82
671.808	45594.69
672.157	45742.94
672.507	45425.66
672.856	45414.13
673.205	45340.23
673.554	45455.03
673.904	45417.75
674.253	45605.31
674.602	45503.85
674.951	44794.71
675.3	44693.02
675.649	45382.72
675.998	45359.22
676.346	45273.57
676.695	45275.83
677.044	45136.85
677.393	45064.08
677.741	45283.29
678.09	45142.05
678.438	44986.8
678.787	45209.39
679.135	45170.07
679.484	44847.59
679.832	45106.79
680.181	44862.28
680.529	44858.44
680.877	44763.75
681.225	44746.13
681.573	44901.6
681.922	44595.4
682.27	44460.03
682.618	44523.98
682.966	44373.48
683.314	44436.53
683.661	44378.23
684.009	44189.08
684.357	44013.72
684.705	43998.57
685.053	43970.33
685.4	43884
685.748	43579.83
686.095	43693.95
686.443	43445.59
686.79	43421.87
687.138	43367.18
687.485	43366.73
687.832	43185.94
688.18	43305.71
688.527	43146.62
688.874	43039.05
689.221	43065.94
689.568	42772.17
689.915	42572.17
690.262	42667.31
690.609	42556.35
690.956	42282.01
691.303	42462.57
691.65	42175.8
691.997	42164.27
692.344	41881.57
692.69	41855.81
693.037	41612.2
693.383	41374.24
693.73	41595.7
694.077	41481.13
694.423	41329.94
694.769	41252.43
695.116	41057.86
695.462	40913.91
695.808	40770.64
696.155	40724.99
696.501	40458.33
696.847	40468.95
697.193	40185.57
697.539	40341.72
697.885	39946.7
698.231	39884.56
698.577	39793.49
698.923	39731.57
699.269	39377.23
699.614	39214.75
699.96	39223.79
700.306	39123.67
700.651	38921.42
700.997	38852.27
701.342	38732.95
701.688	38597.59
702.033	38498.61
702.379	38486.63
702.724	38303.58
703.069	38456.35
703.415	38044.38
703.76	37937.04
704.105	37875.35
704.45	37693.88
704.795	37443.49
705.14	37373.21
705.485	37504.06
705.83	37246.21
706.175	37310.39
706.52	37142.71
706.865	37032.2
707.209	36876.28
707.554	36813
707.899	36642.38
708.243	36575.04
708.588	36559.22
708.932	36322.62
709.277	36447.81
709.621	36205.11
709.966	35910.2
710.31	36086.69
710.654	35845.34
710.998	35940.26
711.342	35762.86
711.687	35664.1
712.031	35732.35
712.375	35528.29
712.719	35446.48
713.063	35394.06
713.407	35469.31
713.75	35360.16
714.094	35112.71
714.438	35058.47
714.782	35111.8
715.125	34766.5
715.469	35106.38
715.812	34846.5
716.156	34743.9
716.499	34762.89
716.843	34732.6
717.186	34540.07
717.53	34818.48
717.873	34609.9
718.216	34587.75
718.559	34325.38
718.902	34245.38
719.246	34292.62
719.589	34156.12
719.932	34110.47
720.275	34154.99
720.617	34110.25
720.96	33992.74
721.303	34003.81
721.646	33990.48
721.989	33860.08
722.331	33910.48
722.674	33801.78
723.016	33830.25
723.359	33623.71
723.701	33825.73
724.044	33589.36
724.386	33517.04
724.729	33649.02
725.071	33696.02
725.413	33697.6
725.755	33518.17
726.097	33460.55
726.439	33453.09
726.782	33302.81
727.124	33510.04
727.465	33455.35
727.807	33287.22
728.149	33460.77
728.491	33276.37
728.833	33404.73
729.175	33360.66
729.516	33241.12
729.858	33246.99
730.199	33343.71
730.541	33346.65
730.882	33164.28
731.224	33294.22
731.565	33270.27
731.906	33172.19
732.248	33342.58
732.589	33114.79
732.93	33125.41
733.271	33061.69
733.612	33109.37
733.953	33256.26
734.294	33017.85
734.635	32974.46
734.976	33107.56
735.317	33098.3
735.658	33157.28
735.999	33066.88
736.339	33046.55
736.68	33148.46
737.021	33221.46
737.361	33050.16
737.702	33387.55
738.042	33141.69
738.383	33270.72
738.723	33365.86
739.063	33286.54
739.404	33299.87
739.744	33270.72
740.084	33173.1
740.424	33279.53
740.764	33297.61
741.104	33496.7
741.444	33317.95
741.784	33267.56
742.124	33434.11
742.464	33454.22
742.804	33499.42
743.143	33439.98
743.483	33523.82
743.823	33419.64
744.162	33476.14
744.502	33542.35
744.841	33614.67
745.181	33921.55
745.52	33910.48
745.86	33930.14
746.199	33824.83
746.538	33938.05
746.877	34093.98
747.216	34123.35
747.556	34188.21
747.895	34181.88
748.234	34297.81
748.573	34240.64
748.911	34260.07
749.25	34413.97
749.589	34349.34
749.928	34483.57
750.267	34581.42
750.605	34696.22
750.944	34583.23
751.283	34615.54
751.621	34655.54
751.96	34758.59
752.298	34908.87
752.636	34964.01
752.975	35025.93
753.313	35005.82
753.651	35129.2
753.989	35065.02
754.327	35257.34
754.666	35206.72
755.004	35420.95
755.342	35521.28
755.679	35464.11
756.017	35460.04
756.355	35710.88
756.693	35597.89
757.031	35755.4
757.368	35586.82
757.706	35681.73
758.044	35740.94
758.381	35825.91
758.719	35892.8
759.056	35864.1
759.394	36007.82
759.731	35939.13
760.068	35779.81
760.405	35946.13
760.743	35825.91
761.08	36011.21
761.417	35988.62
761.754	35964.66
762.091	35958.33
762.428	35752.24
762.765	35798.56
763.102	35926.24
763.438	35895.96
763.775	35758.57
764.112	35829.75
764.449	35825.46
764.785	35688.96
765.122	35669.53
765.458	35655.29
765.795	35615.07
766.131	35634.5
766.467	35631.11
766.804	35541.17
767.14	35414.17
767.476	35421.85
767.812	35408.29
768.148	35413.26
768.485	35324.45
768.821	35072.26
769.157	35008.53
769.492	34928.53
769.828	35100.73
770.164	34730.34
770.5	34614.87
770.836	34803.79
771.171	34565.83
771.507	34571.25
771.842	34374.42
772.178	34275.44
772.513	34293.75
772.849	34208.32
773.184	34268.44
773.519	34138.72
773.855	33985.5
774.19	33944.83
774.525	33743.7
774.86	33773.31
775.195	33684.27
775.53	33485.86
775.865	33356.82
776.2	33195.47
776.535	32910.73
776.87	33031.18
777.205	32952.54
777.539	32868.25
777.874	32927.23
778.209	32553.9
778.543	32708.02
778.878	32445.21
779.212	32425.09
779.547	32089.96
779.881	32157.53
780.215	32075.95
780.55	32023.07
780.884	31821.72
781.218	31684.77
781.552	31765.68
781.886	31627.83
782.22	31522.29
782.554	31247.5
782.888	31044.57
783.222	31076.2
783.556	30920.73
783.889	30871.01
784.223	30670.34
784.557	30643.67
784.89	30708.08
785.224	30475.31
785.557	30379.05
785.891	30314.64
786.224	30200.29
786.558	30235.77
786.891	29957.14
787.224	29838.27
787.557	29864.03
787.891	29795.56
788.224	29581.78
788.557	29549.46
788.89	29444.61
789.223	29392.86
789.556	29133.65
789.888	29278.28
790.221	29029.7
790.554	28883.94
790.887	28867.67
791.219	28747.45
791.552	28565.31
791.884	28478.98
792.217	28510.39
792.549	28278.99
792.882	28024.98
793.214	28134.81
793.546	28176.84
793.879	28012.55
794.211	27701.15
794.543	27938.88
794.875	27808.49
795.207	27782.28
795.539	27700.02
795.871	27727.82
796.203	27506.58
796.535	27323.76
796.867	27380.25
797.198	27131.22
797.53	27142.29
797.862	26848.07
798.193	27006.71
798.525	26672.25
798.856	26907.05
799.188	26549.09
799.519	26533.05
799.85	26350.9
800.182	26481.97
800.513	26411.24
800.844	26069.55
801.175	26448.08
801.506	26298.48
801.837	26083.34
802.168	25925.15
802.499	26037.69
802.83	25825.72
803.161	25748.43
803.491	25729.22
803.822	25780.07
804.153	25439.97
804.483	25355.22
804.814	25252.63
805.145	25253.53
805.475	25259.86
805.805	25209.01
806.136	25287.43
806.466	25126.08
806.796	25120.88
807.126	24853.09
807.457	24913.2
807.787	24915.01
808.117	24759.98
808.447	24701
808.777	24824.62
809.107	24509.6
809.436	24518.41
809.766	24470.95
810.096	24498.07
810.426	24346.66
810.755	24421.01
811.085	24295.59
811.414	24289.49
811.744	24117.74
812.073	24061.92
812.403	23982.6
812.732	23880.23
813.061	23921.59
813.39	23897.86
813.719	23662.39
814.049	23912.78
814.378	23806.56
814.707	23584.65
815.036	23596.63
815.365	23523.18
815.693	23428.49
816.022	23455.39
816.351	23327.03
816.68	23150.31
817.008	23241.38
817.337	23026.7
817.665	23058.56
817.994	23006.81
818.322	23118.22
818.651	23005.91
818.979	22897.66
819.307	22904.44
819.636	22857.89
819.964	22695.41
820.292	22789.87
820.62	22810.21
820.948	22889.07
821.276	22849.98
821.604	22739.02
821.932	22889.53
822.259	22707.16
822.587	22709.64
822.915	22585.13
823.243	22730.21
823.57	22615.18
823.898	22766.36
824.225	22652.02
824.553	22678.23
824.88	22654.5
825.207	22803.65
825.535	22680.04
825.862	22745.12
826.189	22667.84
826.516	22833.93
826.843	22869.86
827.17	22920.94
827.497	22834.61
827.824	22828.28
828.151	22829.64
828.478	22750.32
828.805	22899.69
829.131	22803.65
829.458	22874.61
829.785	22672.13
830.111	22682.75
830.438	22823.09
830.764	22697.44
831.09	22984.89
831.417	22692.92
831.743	22798.45
832.069	22721.17
832.395	22732.92
832.722	22772.92
833.048	22548.97
833.374	22770.88
833.7	22520.95
834.026	22800.49
834.351	22573.15
834.677	22640.27
835.003	22614.73
835.329	22649.53
835.654	22622.19
835.98	22565.01
836.306	22572.92
836.631	22574.05
836.956	22538.12
837.282	22472.14
837.607	22333.61
837.932	22361.18
838.258	22411.12
838.583	22303.78
838.908	22348.3
839.233	22281.41
839.558	22170.22
839.883	22220.39
840.208	22113.95
840.533	22129.77
840.858	22143.1
841.182	22163.44
841.507	22150.34
841.832	21943.11
842.156	21898.36
842.481	21916.9
842.805	21872.6
843.13	21874.86
843.454	21789.22
843.778	21784.7
844.103	21676.68
844.427	21624.93
844.751	21553.06
845.075	21560.97
845.399	21552.61
845.723	21355.1
846.047	21492.27
846.371	21179.74
846.695	21152.85
847.019	21103.36
847.343	20947.66
847.666	20942.23
847.99	20852.97
848.313	20666.08
848.637	20778.62
848.96	20775
849.284	20706.76
849.607	20422.92
849.931	20397.39
850.254	20379.31
850.577	20170.27
850.9	19962.82
851.223	20073.55
851.546	19952.88
851.869	19838.08
852.192	19974.35
852.515	19741.59
852.838	19685.09
853.161	19620.46
853.483	19561.7
853.806	19547.92
854.129	19380.69
854.451	19397.87
854.774	19356.96
855.096	19228.15
855.419	19233.12
855.741	19170.75
856.063	18980.7
856.385	18904.09
856.708	18956.07
857.03	18961.72
857.352	18949.06
857.674	18897.77
857.996	18752.46
858.318	18673.82
858.64	18707.94
858.961	18535.74
859.283	18569.86
859.605	18431.11
859.926	18512.01
860.248	18333.71
860.57	18295.3
860.891	18261.62
861.212	18124.23
861.534	18143.21
861.855	18007.17
862.176	18106.15
862.498	18127.39
862.819	18116.77
863.14	17948.86
863.461	18022.31
863.782	17859.6
864.103	17888.53
864.424	17845.36
864.745	17762.88
865.065	17832.94
865.386	17681.53
865.707	17674.3
866.027	17784.8
866.348	17706.38
866.668	17561.98
866.989	17663.22
867.309	17473.4
867.63	17443.57
867.95	17628.65
868.27	17394.3
868.59	17461.19
868.91	17373.29
869.23	17385.94
869.55	17278.83
869.87	17423.68
870.19	17282.89
870.51	17299.84
870.83	17242.22
871.15	17206.74
871.469	17057.59
871.789	17051.03
872.109	17133.74
872.428	17078.83
872.748	17018.04
873.067	17004.71
873.386	17004.03
873.706	16997.93
874.025	16898.72
874.344	16734.88
874.663	16826.86
874.982	16743.47
875.301	16816.01
875.62	16714.77
875.939	16763.58
876.258	16735.79
876.577	16663.93
876.896	16551.84
877.214	16600.88
877.533	16583.93
877.852	16622.35
878.17	16516.13
878.489	16624.38
878.807	16532.63
879.125	16519.75
879.444	16512.29
879.762	16444.05
880.08	16496.25
880.398	16330.83
880.716	16395.91
881.034	16310.94
881.352	16324.95
881.67	16281.56
881.988	16240.43
882.306	16122.92
882.624	16119.08
882.941	16059.65
883.259	16046.54
883.577	15942.14
883.894	15954.79
884.212	15956.6
884.529	15917.05
884.846	15936.94
885.164	15816.04
885.481	15822.37
885.798	15845.42
886.115	15663.05
886.432	15733.1
886.75	15636.38
887.067	15626.44
887.383	15498.76
887.7	15469.38
888.017	15459.21
888.334	15638.19
888.651	15490.85
888.967	15463.28
889.284	15307.35
889.6	15248.37
889.917	15197.52
890.233	15135.6
890.55	15136.28
890.866	15207.02
891.182	15149.16
891.498	15015.16
891.815	15045.44
892.131	14951.65
892.447	14914.37
892.763	14848.83
893.079	14846.57
893.395	14774.71
893.71	14833.92
894.026	14755.5
894.342	14716.41
894.657	14591.21
894.973	14664.2
895.289	14617.43
895.604	14568.61
895.92	14481.16
896.235	14357.32
896.55	14375.62
896.865	14341.5
897.181	14320.71
897.496	14394.83
897.811	14167.04
898.126	14134.5
898.441	14120.04
898.756	14085.01
899.071	13924.79
899.386	13946.94
899.7	13892.25
900.015	13733.83
900.33	13759.82
900.644	13747.62
900.959	13793.49
901.273	13658.58
901.588	13694.29
901.902	13540.62
902.216	13451.13
902.531	13518.02
902.845	13365.71
903.159	13287.29
903.473	13306.05
903.787	13211.59
904.101	13224.69
904.415	13183.79
904.729	13168.2
905.042	13074.19
905.356	12981.54
905.67	12946.51
905.984	12977.47
906.297	12895.21
906.611	12815.44
906.924	12780.64
907.237	12726.63
907.551	12732.96
907.864	12506.52
908.177	12601.43
908.491	12577.48
908.804	12511.72
909.117	12466.3
909.43	12331.16
909.743	12208.22
910.056	12302.91
910.368	12257.49
910.681	12164.84
910.994	12181.78
911.307	12079.64
911.619	11914.45
911.932	11962.35
912.244	11876.71
912.557	11796.71
912.869	11786.09
913.181	11715.13
913.494	11802.36
913.806	11574.79
914.118	11622.02
914.43	11566.21
914.742	11530.05
915.054	11543.83
915.366	11459.77
915.678	11413.44
915.99	11276.72
916.302	11263.16
916.613	11201.02
916.925	11243.05
917.236	11196.73
917.548	11026.33
917.859	11132.09
918.171	11003.96
918.482	10965.32
918.794	10939.78
919.105	10858.66
919.416	10745.44
919.727	10794.93
920.038	10736.4
920.349	10724.65
920.66	10603.07
920.971	10606.01
921.282	10676.29
921.593	10493.02
921.903	10457.76
922.214	10416.86
922.525	10324.88
922.835	10351.1
923.146	10293.25
923.456	10233.59
923.767	10160.14
924.077	10159.46
924.387	10153.81
924.697	10086.92
925.008	10032.24
925.318	9958.34
925.628	9939.58
925.938	9889.42
926.248	9809.87
926.558	9787.27
926.867	9798.12
927.177	9710.66
927.487	9672.92
927.796	9605.13
928.106	9617.11
928.416	9568.52
928.725	9549.76
929.034	9528.52
929.344	9530.33
929.653	9539.37
929.962	9335.31
930.271	9332.37
930.581	9371.01
930.89	9266.38
931.199	9199.26
931.508	9169.21
931.817	9163.11
932.125	9142.32
932.434	9102.77
932.743	8952.26
933.051	9007.63
933.36	8949.55
933.669	8942.77
933.977	8920.85
934.286	8832.95
934.594	8767.86
934.902	8761.08
935.21	8723.57
935.519	8612.61
935.827	8728.09
936.135	8640.18
936.443	8531.48
936.751	8490.58
937.059	8461.43
937.367	8411.49
937.674	8491.49
937.982	8358.16
938.29	8333.75
938.597	8347.76
938.905	8245.39
939.213	8176.24
939.52	8144.38
939.827	8155.9
940.135	8127.43
940.442	8096.24
940.749	8122
941.056	8063.7
941.363	7990.48
941.67	7993.42
941.977	7873.42
942.284	7875
942.591	7908.68
942.898	7837.94
943.205	7790.49
943.511	7735.8
943.818	7684.28
944.125	7675.24
944.431	7631.62
944.738	7632.3
945.044	7580.55
945.35	7561.11
945.657	7465.52
945.963	7459.2
946.269	7438.18
946.575	7438.63
946.881	7357.28
947.187	7364.28
947.493	7261.01
947.799	7271.86
948.105	7255.59
948.41	7156.83
948.716	7199.99
949.022	7121.13
949.327	7091.3
949.633	7014.91
949.938	7039.55
950.244	7002.71
950.549	6946.89
950.854	6952.77
951.16	6961.58
951.465	6861.02
951.77	6878.42
952.075	6849.72
952.38	6855.6
952.685	6778.99
952.99	6704.64
953.294	6747.8
953.599	6657.41
953.904	6668.71
954.209	6579.9
954.513	6606.56
954.818	6639.78
955.122	6560.24
955.426	6558.2
955.731	6479.79
956.035	6481.37
956.339	6405.66
956.643	6406.12
956.948	6327.7
957.252	6299
957.556	6331.77
957.86	6271.21
958.163	6268.95
958.467	6240.7
958.771	6237.53
959.075	6201.15
959.378	6167.25
959.682	6152.79
959.985	6096.52
960.289	6031.21
960.592	6001.61
960.896	6017.43
961.199	5998.44
961.502	5965.22
961.805	5892.68
962.108	5868.05
962.411	5882.97
962.714	5829.41
963.017	5768.85
963.32	5840.48
963.623	5769.07
963.926	5816.53
964.228	5751.67
964.531	5690.88
964.833	5720.49
965.136	5621.5
965.438	5654.05
965.741	5559.36
966.043	5576.31
966.345	5522.07
966.648	5526.14
966.95	5496.08
967.252	5493.6
967.554	5444.56
967.856	5411.34
968.158	5370.66
968.46	5348.74
968.761	5369.76
969.063	5329.76
969.365	5332.02
969.666	5224.23
969.968	5217.67
970.269	5212.48
970.571	5199.37
970.872	5207.96
971.174	5135.87
971.475	5094.96
971.776	5093.38
972.077	5048.86
972.378	5055.64
972.679	4995.76
972.98	5039.15
973.281	4986.49
973.582	4983.33
973.883	4962.31
974.183	4901.98
974.484	4929.55
974.785	4904.91
975.085	4916.21
975.386	4840.73
975.686	4857.23
975.986	4828.53
976.287	4747.63
976.587	4763
976.887	4760.51
977.187	4722.32
977.487	4693.17
977.787	4696.33
978.087	4632.38
978.387	4610.91
978.687	4628.08
978.987	4601.64
979.286	4572.72
979.586	4513.74
979.885	4556.9
980.185	4485.26
980.484	4493.17
980.784	4457.92
981.083	4415.43
981.382	4441.2
981.682	4399.84
981.981	4382.67
982.28	4361.42
982.579	4375.21
982.878	4325.95
983.177	4338.83
983.475	4253.86
983.774	4246.4
984.073	4252.5
984.372	4208.43
984.67	4225.61
984.969	4202.56
985.267	4167.76
985.566	4156.91
985.864	4100.19
986.162	4117.59
986.461	4031.72
986.759	4073.52
987.057	4022.45
987.355	4031.26
987.653	4007.99
987.951	4010.02
988.249	3957.37
988.547	3961.44
988.844	3929.8
989.142	3909.01
989.44	3896.35
989.737	3867.65
990.035	3853.87
990.332	3845.51
990.63	3849.12
990.927	3770.71
991.224	3834.21
991.521	3777.94
991.819	3744.72
992.116	3748.33
992.413	3722.35
992.71	3653.87
993.006	3692.74
993.303	3629.92
993.6	3649.13
993.897	3636.25
994.193	3624.5
994.49	3596.25
994.787	3595.8
995.083	3556.7
995.379	3541.11
995.676	3509.24
995.972	3520.54
996.268	3462.01
996.565	3468.57
996.861	3439.87
997.157	3413.88
997.453	3441
997.749	3392.64
998.044	3388.8
998.34	3339.98
998.636	3307.67
998.932	3345.18
999.227	3286.42
999.523	3281
999.818	3250.95
1000.114	3285.29
1000.409	3211.85
1000.704	3209.14
1001	3186.09
1001.295	3159.2
1001.59	3180.66
1001.885	3135.92
1002.18	3145.64
1002.475	3104.28
1002.77	3082.14
1003.065	3050.05
1003.359	3031.74
1003.654	3020.9
1003.949	3036.04
1004.243	3015.92
1004.538	2970.73
1004.832	2953.1
1005.127	2947
1005.421	2948.58
1005.715	2907.45
1006.009	2898.19
1006.304	2890.28
1006.598	2856.38
1006.892	2859.32
1007.186	2843.72
1007.48	2806.21
1007.773	2811.64
1008.067	2805.99
1008.361	2768.92
1008.655	2733.22
1008.948	2734.57
1009.242	2735.48
1009.535	2668.81
1009.829	2706.33
1010.122	2671.98
1010.415	2646.89
1010.708	2627.01
1011.001	2578.19
1011.295	2594.24
1011.588	2587.46
1011.881	2540.68
1012.173	2553.79
1012.466	2580.45
1012.759	2523.96
1013.052	2521.7
1013.344	2495.49
1013.637	2493.68
1013.93	2444.41
1014.222	2473.11
1014.514	2441.93
1014.807	2454.58
1015.099	2420.23
1015.391	2356.73
1015.683	2386.11
1015.976	2344.75
1016.268	2356.51
1016.56	2342.95
1016.851	2316.73
1017.143	2281.48
1017.435	2263.4
1017.727	2242.16
1018.018	2283.74
1018.31	2264.98
1018.602	2210.07
1018.893	2200.13
1019.185	2175.04
1019.476	2161.48
1019.767	2182.73
1020.058	2174.59
1020.35	2134.36
1020.641	2104.76
1020.932	2079.9
1021.223	2087.59
1021.514	2048.04
1021.804	2050.53
1022.095	2041.03
1022.386	2064.31
1022.677	1999.91
1022.967	2022.5
1023.258	2009.62
1023.548	1977.98
1023.839	1976.63
1024.129	1951.77
1024.419	1942.73
1024.709	1936.63
1025	1915.16
1025.29	1891.66
1025.58	1857.76
1025.87	1857.99
1026.16	1867.93
1026.449	1856.41
1026.739	1802.17
1027.029	1829.51
1027.319	1806.46
1027.608	1803.3
1027.898	1771.21
1028.187	1762.4
1028.477	1739.8
1028.766	1725.34
1029.055	1720.82
1029.344	1706.81
1029.634	1696.86
1029.923	1683.98
1030.212	1668.61
1030.501	1660.7
1030.79	1646.24
1031.078	1639.24
1031.367	1610.08
1031.656	1618.67
1031.945	1603.08
1032.233	1581.38
1032.522	1591.33
1032.81	1599.24
1033.099	1558.33
1033.387	1562.18
1033.675	1566.47
1033.963	1527.6
1034.251	1535.51
1034.54	1501.39
1034.828	1515.4
1035.116	1499.13
1035.403	1498
1035.691	1472.69
1035.979	1450.54
1036.267	1424.55
1036.554	1435.4
1036.842	1416.64
1037.129	1410.99
1037.417	1382.29
1037.704	1436.08
1037.992	1397.21
1038.279	1381.39
1038.566	1382.52
1038.853	1382.52
1039.14	1382.52
