Data from 583_FLMS001491_007.txt Node
Date: Thu Apr 19 15:43:31 BST 2018
User: hsy
Spectrometer: FLMS00149
Trigger mode: 0
Integration Time (sec): 1.000000E-2
Scans to average: 10
Electric dark correction enabled: true
Nonlinearity correction enabled: false
Boxcar width: 0
XAxis mode: Wavelengths
Number of Pixels in Spectrum: 2048
>>>>>Begin Spectral Data<<<<<
341.393	-2.51
341.776	-2.51
342.16	-2.51
342.543	-37.77
342.927	-66.47
343.31	-68.28
343.693	-61.72
344.077	-67.37
344.46	-66.47
344.843	-81.61
345.226	-49.29
345.61	-37.54
345.993	-3.19
346.376	-6.81
346.759	9.91
347.142	24.6
347.525	40.2
347.908	68.44
348.291	97.37
348.674	92.4
349.057	109.35
349.44	121.32
349.823	140.53
350.206	176.01
350.588	245.62
350.971	228.44
351.354	253.98
351.737	287.2
352.119	265.95
352.502	297.14
352.884	296.24
353.267	320.19
353.65	337.82
354.032	349.57
354.414	310.47
354.797	365.39
355.179	347.31
355.562	365.61
355.944	377.14
356.326	362.9
356.709	353.63
357.091	367.87
357.473	404.48
357.855	406.51
358.238	371.04
358.62	368.32
359.002	385.72
359.384	401.32
359.766	376.46
360.148	400.64
360.53	388.89
360.912	401.77
361.294	404.71
361.676	379.85
362.057	370.36
362.439	380.75
362.821	385.5
363.203	376.69
363.584	366.74
363.966	359.96
364.348	367.65
364.729	382.33
365.111	390.92
365.493	374.65
365.874	366.29
366.256	385.27
366.637	371.71
367.019	369.91
367.4	349.12
367.781	366.74
368.163	354.99
368.544	362.22
368.925	368.78
369.306	360.87
369.688	366.29
370.069	392.05
370.45	384.59
370.831	384.82
371.212	347.53
371.593	356.8
371.974	366.74
372.355	384.59
372.736	377.59
373.117	373.75
373.498	376.46
373.879	378.27
374.26	379.17
374.641	366.06
375.021	385.95
375.402	377.59
375.783	388.89
376.163	393.41
376.544	409.23
376.925	397.93
377.305	394.09
377.686	373.97
378.066	404.71
378.447	400.41
378.827	404.48
379.208	410.13
379.588	414.42
379.968	397.7
380.349	411.03
380.729	411.03
381.109	401.54
381.489	420.75
381.87	437.7
382.25	404.03
382.63	431.37
383.01	404.25
383.39	422.33
383.77	439.73
384.15	448.32
384.53	432.05
384.91	430.02
385.29	449.9
385.67	446.06
386.049	436.34
386.429	452.62
386.809	466.17
387.189	460.52
387.568	455.33
387.948	450.81
388.328	492.84
388.707	485.61
389.087	470.02
389.466	470.92
389.846	489.9
390.225	459.39
390.605	479.51
390.984	495.33
391.363	497.36
391.743	493.97
392.122	527.42
392.501	499.39
392.881	519.28
393.26	518.38
393.639	500.3
394.018	497.36
394.397	519.05
394.776	507.76
395.155	505.27
395.534	510.24
395.913	494.2
396.292	519.05
396.671	559.96
397.05	543.46
397.429	524.7
397.808	534.65
398.186	576.68
398.565	529.68
398.944	545.27
399.323	568.32
399.701	561.99
400.08	556.57
400.458	553.86
400.837	568.09
401.215	580.52
401.594	572.39
401.972	555.21
402.351	610.58
402.729	578.49
403.107	554.53
403.486	616.9
403.864	613.29
404.242	603.12
404.62	604.7
404.999	591.82
405.377	620.29
405.755	605.61
406.133	615.77
406.511	639.05
406.889	640.63
407.267	616.9
407.645	643.57
408.023	623.68
408.401	678.6
408.779	652.38
409.156	663.91
409.534	674.08
409.912	678.6
410.29	684.25
410.667	679.28
411.045	685.15
411.422	711.37
411.8	696.22
412.178	725.15
412.555	759.27
412.933	761.31
413.31	745.26
413.687	748.2
414.065	759.95
414.442	761.76
414.819	774.64
415.197	771.02
415.574	768.77
415.951	777.58
416.328	797.24
416.705	802.66
417.082	789.1
417.46	791.59
417.837	819.61
418.214	828.65
418.591	818.71
418.967	839.72
419.344	821.19
419.721	841.31
420.098	822.1
420.475	831.14
420.852	848.54
421.228	871.59
421.605	875.88
421.982	888.08
422.358	885.15
422.735	913.85
423.111	886.73
423.488	898.03
423.864	923.79
424.241	926.95
424.617	937.57
424.994	938.93
425.37	948.2
425.746	930.57
426.123	961.75
426.499	964.92
426.875	971.02
427.251	965.82
427.627	981.64
428.003	1007.18
428.379	997.23
428.756	1023
429.132	1028.87
429.507	1046.27
429.883	1051.47
430.259	1078.36
430.635	1066.84
431.011	1112.94
431.387	1117
431.763	1119.94
432.138	1113.39
432.514	1132.82
432.89	1141.64
433.265	1156.55
433.641	1176.66
434.016	1147.96
434.392	1219.83
434.767	1226.83
435.143	1244.68
435.518	1239.94
435.894	1238.13
436.269	1248.53
436.644	1266.38
437.02	1294.85
437.395	1279.71
437.77	1296.66
438.145	1318.13
438.52	1293.05
438.895	1323.78
439.271	1366.94
439.646	1383.89
440.021	1334.63
440.395	1344.8
440.77	1348.86
441.145	1346.6
441.52	1382.99
441.895	1429.31
442.27	1419.37
442.645	1409.43
443.019	1429.76
443.394	1422.08
443.769	1418.24
444.143	1430.67
444.518	1449.88
444.892	1448.07
445.267	1468.41
445.641	1464.11
446.016	1465.92
446.39	1501.85
446.764	1508.18
447.139	1517.9
447.513	1531.91
447.887	1519.25
448.262	1508.86
448.636	1558.57
449.01	1566.03
449.384	1550.21
449.758	1598.12
450.132	1617.78
450.506	1625.01
450.88	1637.89
451.254	1632.25
451.628	1661.62
452.002	1671.79
452.376	1683.32
452.75	1719.7
453.123	1729.42
453.497	1733.26
453.871	1751.79
454.244	1790.21
454.618	1811.68
454.992	1845.35
455.365	1829.3
455.739	1856.65
456.112	1889.19
456.486	1910.2
456.859	1938.23
457.232	1957.43
457.606	1989.98
457.979	1989.98
458.352	2047.83
458.725	2063.65
459.099	2065.68
459.472	2066.58
459.845	2152.91
460.218	2134.83
460.591	2208.5
460.964	2192.46
461.337	2218.22
461.71	2273.36
462.083	2274.94
462.456	2288.27
462.829	2295.05
463.201	2334.15
463.574	2365.11
463.947	2387.71
464.32	2392.9
464.692	2431.32
465.065	2435.16
465.438	2490.08
465.81	2509.28
466.183	2520.58
466.555	2583.18
466.928	2611.65
467.3	2633.57
467.672	2664.76
468.045	2708.15
468.417	2713.35
468.789	2738.66
469.161	2790.86
469.534	2831.08
469.906	2890.74
470.278	2874.47
470.65	2921.25
471.022	2970.52
471.394	3011.64
471.766	3037.41
472.138	3088.48
472.51	3182.94
472.882	3188.14
473.253	3172.09
473.625	3324.4
473.997	3343.61
474.369	3377.74
474.74	3417.06
475.112	3485.08
475.484	3533.21
475.855	3596.71
476.227	3590.84
476.598	3679.87
476.97	3778.86
477.341	3811.17
477.713	3915.35
478.084	3916.25
478.455	4046.19
478.827	4083.48
479.198	4203.7
479.569	4223.14
479.94	4349.01
480.311	4428.56
480.682	4498.61
481.053	4558.5
481.424	4667.19
481.795	4782.9
482.166	4810.01
482.537	4888.2
482.908	4992.16
483.279	5062.66
483.65	5176.56
484.021	5308.76
484.391	5423.78
484.762	5433.5
485.133	5576.1
485.503	5656.32
485.874	5811.57
486.244	5880.27
486.615	6008.63
486.985	6122.52
487.356	6233.71
487.726	6330.2
488.097	6533.13
488.467	6556.64
488.837	6741.49
489.207	6884.31
489.578	7053.12
489.948	7161.59
490.318	7296.5
490.688	7346.9
491.058	7547.12
491.428	7688.58
491.798	7790.73
492.168	8028.69
492.538	8166.31
492.908	8380.77
493.278	8463.03
493.648	8580.99
494.017	8788.89
494.387	9002.45
494.757	9119.28
495.126	9267.3
495.496	9479.27
495.866	9621.41
496.235	9817.11
496.605	9948.64
496.974	10136.88
497.344	10303.2
497.713	10499.58
498.082	10735.06
498.452	10867.71
498.821	11036.29
499.19	11199.45
499.559	11517.86
499.928	11730.96
500.298	11831.98
500.667	12054.12
501.036	12218.86
501.405	12458.63
501.774	12614.33
502.143	12857.71
502.512	13092.51
502.88	13369.79
503.249	13601.87
503.618	13748.54
503.987	13979.04
504.356	14221.52
504.724	14461.96
505.093	14618.34
505.462	14825.34
505.83	15132.91
506.199	15342.85
506.567	15715.49
506.936	15810.63
507.304	16142.37
507.672	16302.37
508.041	16476.15
508.409	16849.7
508.777	17116.81
509.145	17318.39
509.514	17415.56
509.882	17742.33
510.25	17921.31
510.618	18219.15
510.986	18280.17
511.354	18623.21
511.722	18897.1
512.09	19190.65
512.458	19239.47
512.826	19521.72
513.193	19720.58
513.561	19926
513.929	20156.28
514.297	20396.95
514.664	20713.55
515.032	20872.64
515.4	21096.14
515.767	21335
516.135	21618.39
516.502	21520.08
516.869	21963.01
517.237	22261.99
517.604	22241.42
517.972	22650.9
518.339	22639.15
518.706	22953.72
519.073	23094.73
519.44	23303.99
519.808	23576.08
520.175	23773.81
520.542	24002.5
520.909	24188.04
521.276	24316.17
521.643	24701.47
522.009	24841.13
522.376	25065.53
522.743	25200.67
523.11	25641.11
523.477	25915
523.843	25914.54
524.21	26299.62
524.577	26512.49
524.943	26719.27
525.31	26749.78
525.676	27146.15
526.043	27408.74
526.409	27678.34
526.776	27756.76
527.142	27988.16
527.508	28128.72
527.874	28461.82
528.241	28506.34
528.607	28672.66
528.973	29009.6
529.339	28983.84
529.705	29305.42
530.071	29511.29
530.437	29716.03
530.803	29952.18
531.169	30143.59
531.535	30070.59
531.901	30369.34
532.267	30392.17
532.632	30562.56
532.998	30764.36
533.364	31034.41
533.73	31064.69
534.095	31325.25
534.461	31483.44
534.826	31468.75
535.192	31613.83
535.557	31853.6
535.923	31847.04
536.288	32004.1
536.653	32157.32
537.019	32040.49
537.384	32259.01
537.749	32390.76
538.114	32358.67
538.479	32390.31
538.845	32563.41
539.21	32563.41
539.575	32700.58
539.94	32794.82
540.305	32977.41
540.67	32990.74
541.034	32970.63
541.399	33225.54
541.764	33218.31
542.129	33289.27
542.494	33338.76
542.858	33541.46
543.223	33391.64
543.587	33687.9
543.952	33628.24
544.316	33616.71
544.681	33664.85
545.045	33776.94
545.41	33854.67
545.774	33927.22
546.138	33864.62
546.503	34087.21
546.867	34130.37
547.231	34213.08
547.595	34359.29
547.959	34453.08
548.324	34429.12
548.688	34504.6
549.052	34581.44
549.416	34450.82
549.779	34619.17
550.143	34545.73
550.507	34834.76
550.871	34804.25
551.235	34753.86
551.599	35161.53
551.962	35131.48
552.326	35241.31
552.689	35250.8
553.053	35036.11
553.417	35349.55
553.78	35514.97
554.143	35607.4
554.507	35711.58
554.87	35862.53
555.234	36174.16
555.597	35806.71
555.96	36092.81
556.323	36142.98
556.686	36141.85
557.05	36293.93
557.413	36443.53
557.776	36519.24
558.139	36656.41
558.502	36716.75
558.865	36620.93
559.228	37002.39
559.59	36998.09
559.953	37220.46
560.316	37554.24
560.679	37371.64
561.041	37591.07
561.404	37591.3
561.767	38025.19
562.129	37943.15
562.492	38279.42
562.854	38197.61
563.217	38289.36
563.579	38460.43
563.941	38634.89
564.304	38739.07
564.666	38994.2
565.028	38972.73
565.39	39186.06
565.753	39284.14
566.115	39351.48
566.477	39504.47
566.839	39674.63
567.201	39953.72
567.563	39829.88
567.925	40165.24
568.287	40176.32
568.648	40285.92
569.01	40410.43
569.372	40656.76
569.734	40678.9
570.095	40744.89
570.457	41057.88
570.819	41028.95
571.18	41163.86
571.542	41457.41
571.903	41386.45
572.265	41619.44
572.626	41687.24
572.987	41665.77
573.349	41844.07
573.71	41927.91
574.071	42059.66
574.432	42234.34
574.794	42466.88
575.155	42559.3
575.516	42481.79
575.877	42341.91
576.238	42753.65
576.599	42718.17
576.96	42663.26
577.32	42609.7
577.681	42829.13
578.042	43070.25
578.403	43041.55
578.763	43055.56
579.124	43023.7
579.485	43171.94
579.845	43359.06
580.206	43176.46
580.566	43220.98
580.927	43241.09
581.287	43373.97
581.648	43257.14
582.008	43371.49
582.368	43386.4
582.728	43466.4
583.089	43235.9
583.449	43264.82
583.809	43445.61
584.169	43453.07
584.529	43206.75
584.889	43693.51
585.249	43196.12
585.609	43216.46
585.969	43519.28
586.329	43351.15
586.688	43529.9
587.048	43338.72
587.408	43352.05
587.768	43213.75
588.127	43294.43
588.487	43301.43
588.846	43543.01
589.206	43177.37
589.565	43092.4
589.925	43319.51
590.284	43317.25
590.643	43314.31
591.003	43170.59
591.362	43434.99
591.721	43350.47
592.08	43320.87
592.44	43533.74
592.799	43434.31
593.158	43487.64
593.517	43377.81
593.876	43523.35
594.235	43347.76
594.593	43329
594.952	43318.61
595.311	43447.19
595.67	43413.52
596.029	43706.17
596.387	43612.61
596.746	43778.26
597.104	43322.45
597.463	43392.73
597.822	43612.38
598.18	43487.64
598.538	43498.26
598.897	43800.85
599.255	43537.81
599.613	44002.2
599.972	43601.09
600.33	43756.56
600.688	43626.4
601.046	43669.11
601.404	43846.28
601.762	43792.94
602.12	43979.83
602.478	43902.77
602.836	43940.74
603.194	43688.54
603.552	43764.02
603.91	43792.27
604.268	43993.62
604.625	43877.01
604.983	44120.62
605.341	43771.93
605.698	44092.6
606.056	44327.39
606.413	44170.11
606.771	44352.48
607.128	44380.5
607.485	44034.75
607.843	44210.11
608.2	44536.88
608.557	44680.38
608.914	44595.41
609.272	44707.95
609.629	44894.16
609.986	44976.87
610.343	44826.14
610.7	45191.33
611.057	44985.91
611.414	44874.95
611.771	45091.67
612.127	45161.04
612.484	45217.54
612.841	45342.06
613.198	45173.02
613.554	45157.88
613.911	45340.7
614.267	45415.5
614.624	45523.97
614.98	45508.38
615.337	45802.16
615.693	45619.34
616.05	45669.96
616.406	45883.06
616.762	45808.94
617.118	45839.67
617.475	45834.02
617.831	46093
618.187	45985.2
618.543	46206.21
618.899	46308.13
619.255	46161.24
619.611	46206.67
619.967	46371.18
620.323	46401.69
620.678	46240.79
621.034	46333.67
621.39	46373.67
621.746	46287.34
622.101	46878.74
622.457	46339.77
622.812	46579.31
623.168	46559.2
623.523	46565.3
623.879	46729.14
624.234	46601.46
624.589	46688.91
624.945	46686.65
625.3	46680.78
625.655	46895.91
626.01	46787.67
626.365	46674.9
626.72	46705.86
627.075	46568.69
627.43	46669.71
627.785	46716.03
628.14	46676.48
628.495	46823.15
628.85	46750.15
629.205	46593.77
629.559	46713.09
629.914	46573.89
630.269	46585.19
630.623	46446.89
630.978	46471.29
631.332	46630.84
631.687	46620.21
632.041	46502.7
632.396	46645.98
632.75	46398.98
633.104	46518.97
633.459	46261.13
633.813	46289.38
634.167	46298.19
634.521	46271.3
634.875	46207.57
635.229	46110.4
635.583	45969.38
635.937	45866.34
636.291	45857.75
636.645	45901.59
636.999	45780.69
637.352	45867.69
637.706	45546.57
638.06	45851.65
638.413	45675.38
638.767	45539.34
639.121	45666.34
639.474	45398.1
639.828	45378.21
640.181	45337.54
640.534	45526.91
640.888	45213.92
641.241	45130.99
641.594	45102.97
641.947	45142.29
642.301	45038.79
642.654	45170.54
643.007	44975.51
643.36	45038.11
643.713	45005.57
644.066	45180.03
644.419	44824.33
644.771	44346.83
645.124	43952.04
645.477	43932.83
645.83	43834.07
646.182	43937.35
646.535	43721.08
646.888	43970.12
647.24	43846.95
647.593	43969.44
647.945	43875.88
648.298	43661.42
648.65	43633.63
649.002	43281.77
649.355	43191.83
649.707	43166.29
650.059	43219.4
650.411	43779.16
650.763	43860.74
651.115	44556.09
651.467	44274.29
651.819	44366.26
652.171	44324
652.523	44179.6
652.875	44267.06
653.227	44146.16
653.578	44407.39
653.93	44328.75
654.282	44048.98
654.633	44008.98
654.985	44210.56
655.337	44062.09
655.688	44180.96
656.039	44406.04
656.391	43939.38
656.742	44096.89
657.094	44093.5
657.445	44055.99
657.796	44152.71
658.147	44010.11
658.498	44135.31
658.849	44146.61
659.2	44044.46
659.551	43829.33
659.902	44116.78
660.253	44124.91
660.604	44107.74
660.955	43884.47
661.306	44244.91
661.656	44026.84
662.007	44136.44
662.358	44139.38
662.708	44078.81
663.059	44044.24
663.409	43974.41
663.76	44146.16
664.11	44068.87
664.461	44257.57
664.811	44152.03
665.161	44211.46
665.511	44105.93
665.862	44085.14
666.212	44269.54
666.562	44251.92
666.912	44287.39
667.262	43990.91
667.612	44236.32
667.962	44154.52
668.312	44103.44
668.662	44286.94
669.011	44190.9
669.361	44053.73
669.711	44131.24
670.06	44064.35
670.41	43899.61
670.76	43903.68
671.109	44093.05
671.459	44003.11
671.808	44002.88
672.157	44050.79
672.507	43749.56
672.856	43873.62
673.205	44036.33
673.554	43900.96
673.904	43760.18
674.253	44120.62
674.602	43893.51
674.951	43231.83
675.3	43059.63
675.649	43944.35
675.998	43826.84
676.346	43772.61
676.695	43895.31
677.044	43507.3
677.393	43633.63
677.741	43691.25
678.09	43751.36
678.438	43529.67
678.787	43580.75
679.135	43724.7
679.484	43241.77
679.832	43579.84
680.181	43528.09
680.529	43413.75
680.877	43305.27
681.225	43136.24
681.573	43376.68
681.922	43167.2
682.27	43130.14
682.618	43048.11
682.966	42943.02
683.314	43112.96
683.661	42940.31
684.009	42732.41
684.357	42640.21
684.705	42506.65
685.053	42590.04
685.4	42440.89
685.748	42360.67
686.095	42337.16
686.443	42071.63
686.79	42186.66
687.138	42138.75
687.485	41994.57
687.832	41879.32
688.18	41847.01
688.527	41706.9
688.874	41598.65
689.221	41469.39
689.568	41343.07
689.915	41176.29
690.262	41279.56
690.609	41040.47
690.956	40848.84
691.303	40876.64
691.65	40561.39
691.997	40635.51
692.344	40233.94
692.69	40365.24
693.037	40423.54
693.383	39978.81
693.73	40107.39
694.077	39891.13
694.423	39778.13
694.769	39679.15
695.116	39503.11
695.462	39455.43
695.808	39160.98
696.155	39406.39
696.501	39003.01
696.847	39074.65
697.193	38744.04
697.539	38935.45
697.885	38496.36
698.231	38517.38
698.577	38436.48
698.923	38374.1
699.269	37931.4
699.614	38042.59
699.96	37901.57
700.306	37854.57
700.651	37603.73
700.997	37424.07
701.342	37477.86
701.688	37340.68
702.033	37086.23
702.379	37194.93
702.724	36908.38
703.069	36887.36
703.415	36498
703.76	36431.33
704.105	36530.31
704.45	36421.39
704.795	36228.62
705.14	36037.44
705.485	36071.79
705.83	35809.2
706.175	35987.5
706.52	35810.1
706.865	35665.47
707.209	35518.13
707.554	35505.93
707.899	35388.65
708.243	35210.57
708.588	35281.76
708.932	35029.11
709.277	34957.92
709.621	34921.99
709.966	34686.29
710.31	34800.86
710.654	34469.35
710.998	34627.08
711.342	34635.9
711.687	34433.19
712.031	34258.51
712.375	34117.04
712.719	34075.01
713.063	33987.33
713.407	34189.13
713.75	34127.89
714.094	34011.05
714.438	33850.61
714.782	33817.84
715.125	33615.59
715.469	33941.23
715.812	33600.44
716.156	33589.82
716.499	33622.59
716.843	33551.86
717.186	33342.15
717.53	33515.47
717.873	33570.61
718.216	33401.13
718.559	33326.33
718.902	32918.2
719.246	33156.39
719.589	33120.46
719.932	32961.14
720.275	32861.93
720.617	32938.54
720.96	32827.58
721.303	32944.87
721.646	33072.55
721.989	32748.72
722.331	32853.57
722.674	32713.46
723.016	32623.75
723.359	32682.73
723.701	32712.11
724.044	32587.82
724.386	32488.16
724.729	32534.48
725.071	32571.09
725.413	32339.91
725.755	32390.98
726.097	32334.94
726.439	32211.55
726.782	32328.61
727.124	32409.52
727.465	32322.96
727.807	32315.05
728.149	32295.62
728.491	32205.68
728.833	32177.2
729.175	32208.84
729.516	32216.07
729.858	32060.37
730.199	32203.87
730.541	32163.19
730.882	32075.29
731.224	32075.74
731.565	31840.04
731.906	32085.46
732.248	32097.88
732.589	31912.58
732.93	31923.88
733.271	31923.65
733.612	31915.06
733.953	32112.8
734.294	31912.13
734.635	31807.27
734.976	32134.27
735.317	31980.83
735.658	31909.42
735.999	32005.01
736.339	31908.96
736.68	32067.6
737.021	31916.65
737.361	31833.71
737.702	32085.68
738.042	32018.34
738.383	32134.95
738.723	32113.03
739.063	32022.86
739.404	32129.3
739.744	32142.18
740.084	32075.06
740.424	32196.64
740.764	32179.46
741.104	32303.3
741.444	32152.57
741.784	32225.57
742.124	32307.37
742.464	32264.43
742.804	32209.07
743.143	32374.94
743.483	32494.26
743.823	32262.4
744.162	32471.21
744.502	32537.87
744.841	32509.4
745.181	32676.4
745.52	32628.04
745.86	32777.87
746.199	32671.66
746.538	32827.36
746.877	32936.05
747.216	32935.15
747.556	32974.92
747.895	33164.98
748.234	33014.24
748.573	33245.43
748.911	33162.04
749.25	33283.84
749.589	33268.48
749.928	33525.42
750.267	33599.54
750.605	33509.15
750.944	33648.35
751.283	33619.2
751.621	33827.1
751.96	33770.84
752.298	33814.68
752.636	33994.33
752.975	33830.95
753.313	33921.11
753.651	34133.31
753.989	34030.04
754.327	34224.83
754.666	34096.48
755.004	34276.58
755.342	34387.32
755.679	34459.4
756.017	34290.6
756.355	34555.45
756.693	34576.24
757.031	34548.44
757.368	34549.35
757.706	34760.64
758.044	34728.55
758.381	34708.44
758.719	34827.08
759.056	34855.55
759.394	34807.87
759.731	34716.35
760.068	34852.16
760.405	34880.18
760.743	34731.26
761.08	34944.14
761.417	34726.29
761.754	34893.74
762.091	34835.67
762.428	34776.01
762.765	34704.14
763.102	34976
763.438	34896
763.775	34818.72
764.112	34771.49
764.449	34764.71
764.785	34733.97
765.122	34651.94
765.458	34615.56
765.795	34496.47
766.131	34687.65
766.467	34559.29
766.804	34551.15
767.14	34344.15
767.476	34322.69
767.812	34239.75
768.148	34408.78
768.485	34210.6
768.821	34136.02
769.157	34128.34
769.492	33992.98
769.828	34125.4
770.164	33753.66
770.5	33723.38
770.836	33904.62
771.171	33688.58
771.507	33643.83
771.842	33544.4
772.178	33483.84
772.513	33432.76
772.849	33452.43
773.184	33306.67
773.519	33179.44
773.855	33053.11
774.19	33074.58
774.525	32917.3
774.86	32680.69
775.195	32736.96
775.53	32611.77
775.865	32477.99
776.2	32368.39
776.535	32253.13
776.87	32230.08
777.205	32116.19
777.539	31989.87
777.874	32051.11
778.209	31768.63
778.543	31750.78
778.878	31694.28
779.212	31594.85
779.547	31283.89
779.881	31402.76
780.215	31207.29
780.55	31262.2
780.884	30919.38
781.218	30905.37
781.552	30963.23
781.886	30712.16
782.22	30634.42
782.554	30512.39
782.888	30248.89
783.222	30290.7
783.556	30141.1
783.889	29954.89
784.223	29895.23
784.557	29943.82
784.89	29916.02
785.224	29677.16
785.557	29635.58
785.891	29443.94
786.224	29539.53
786.558	29465.41
786.891	29203.05
787.224	28997.85
787.557	28975.03
787.891	28974.35
788.224	28838.99
788.557	28810.74
788.89	28763.06
789.223	28718.31
789.556	28481.93
789.888	28484.19
790.221	28319.91
790.554	28115.39
790.887	28241.04
791.219	28053.92
791.552	28007.6
791.884	27890.31
792.217	27756.3
792.549	27725.8
792.882	27500.49
793.214	27545.01
793.546	27497.55
793.879	27346.15
794.211	27106.83
794.543	27193.38
794.875	27200.84
795.207	27152.48
795.539	27048.3
795.871	26975.53
796.203	26810.57
796.535	26608.76
796.867	26746.39
797.198	26523.34
797.53	26495.55
797.862	26206.51
798.193	26300.52
798.525	26077.93
798.856	26224.82
799.188	25879.29
799.519	25860.08
799.85	25712.74
800.182	25708.67
800.513	25832.06
800.844	25510.94
801.175	25728.56
801.506	25638.62
801.837	25528.11
802.168	25383.71
802.499	25364.5
802.83	25063.95
803.161	25109.37
803.491	25029.37
803.822	25100.33
804.153	24883.61
804.483	24826.44
804.814	24664.63
805.145	24775.82
805.475	24776.95
805.805	24607.46
806.136	24494.24
806.466	24373.34
806.796	24431.65
807.126	24183.97
807.457	24212.22
807.787	24174.48
808.117	24210.86
808.447	24053.8
808.777	24211.09
809.107	23825.11
809.436	23865.33
809.766	23879.57
810.096	23823.75
810.426	23618.56
810.755	23743.08
811.085	23697.88
811.414	23653.59
811.744	23530.43
812.073	23464.44
812.403	23421.28
812.732	23233.71
813.061	23463.31
813.39	23253.37
813.719	23151.23
814.049	23364.56
814.378	23207.05
814.707	23002.3
815.036	23007.95
815.365	22851.35
815.693	22758.24
816.022	22734.97
816.351	22715.31
816.68	22668.08
817.008	22802.99
817.337	22582.65
817.665	22687.06
817.994	22549.21
818.322	22488.87
818.651	22427.4
818.979	22445.03
819.307	22389.89
819.636	22428.99
819.964	22325.71
820.292	22348.76
820.62	22294.07
820.948	22342.44
821.276	22379.04
821.604	22261.53
821.932	22518.25
822.259	22267.63
822.587	22219.73
822.915	22245.04
823.243	22185.83
823.57	22141.99
823.898	22328.42
824.225	22266.5
824.553	22184.7
824.88	22233.74
825.207	22273.28
825.535	22135.89
825.862	22183.8
826.189	22169.78
826.516	22339.05
826.843	22277.35
827.17	22379.72
827.497	22159.62
827.824	22322.55
828.151	22377.91
828.478	22174.08
828.805	22428.53
829.131	22219.73
829.458	22258.37
829.785	22144.02
830.111	22200.07
830.438	22411.36
830.764	22273.51
831.09	22276.45
831.417	22156.68
831.743	22368.65
832.069	22220.4
832.395	22211.14
832.722	22185.83
833.048	22173.85
833.374	22305.15
833.7	22077.13
834.026	22205.26
834.351	22196
834.677	22126.62
835.003	22067.87
835.329	22155.1
835.654	22036.68
835.98	21957.36
836.306	22046.62
836.631	21969.56
836.956	22068.09
837.282	21947.42
837.607	21894.09
837.932	21911.71
838.258	21812.05
838.583	21861.54
838.908	21926.17
839.233	21817.93
839.558	21650.93
839.883	21670.81
840.208	21546.3
840.533	21671.04
840.858	21536.58
841.182	21495
841.507	21472.4
841.832	21420.88
842.156	21422.46
842.481	21430.37
842.805	21277.83
843.13	21219.3
843.454	21230.37
843.778	21165.97
844.103	21153.99
844.427	21084.16
844.751	21119.19
845.075	21030.61
845.399	20892.53
845.723	20896.37
846.047	20860.21
846.371	20791.52
846.695	20720.56
847.019	20568.7
847.343	20400.57
847.666	20400.34
847.99	20285.77
848.313	20209.61
848.637	20214.58
848.96	20107.24
849.284	20110.63
849.607	19871.77
849.931	19947.92
850.254	19896.85
850.577	19702.05
850.9	19607.14
851.223	19613.02
851.546	19459.8
851.869	19415.96
852.192	19565.78
852.515	19296.87
852.838	19210.99
853.161	19224.55
853.483	19084.67
853.806	19077.21
854.129	19060.04
854.451	19004.9
854.774	18843.32
855.096	18862.53
855.419	18737.11
855.741	18688.07
856.063	18647.39
856.385	18575.98
856.708	18469.99
857.03	18462.31
857.352	18427.74
857.674	18366.04
857.996	18312.94
858.318	18218.93
858.64	18290.79
858.961	18116.78
859.283	17999.95
859.605	18063.23
859.926	18080.85
860.248	17975.77
860.57	17820.97
860.891	17929.22
861.212	17752.05
861.534	17715.66
861.855	17735.55
862.176	17759.28
862.498	17730.58
862.819	17678.15
863.14	17710.47
863.461	17596.35
863.782	17427.31
864.103	17566.97
864.424	17532.84
864.745	17642.67
865.065	17485.16
865.386	17380.08
865.707	17307.54
866.027	17371.49
866.348	17296.24
866.668	17258.28
866.989	17246.07
867.309	17083.82
867.63	17034.33
867.95	17169.69
868.27	17013.54
868.59	17159.97
868.91	17030.48
869.23	16981.9
869.55	16999.52
869.87	16995.01
870.19	16851.28
870.51	16912.75
870.83	16911.39
871.15	16800.89
871.469	16860.09
871.789	16786.87
872.109	16736.03
872.428	16693.09
872.748	16655.35
873.067	16651.29
873.386	16604.28
873.706	16583.26
874.025	16524.28
874.344	16480.22
874.663	16537.84
874.982	16502.36
875.301	16508.46
875.62	16368.13
875.939	16383.04
876.258	16463.04
876.577	16321.58
876.896	16296.94
877.214	16301.24
877.533	16327
877.852	16279.09
878.17	16220.11
878.489	16265.31
878.807	16135.59
879.125	16153.22
879.444	16049.72
879.762	16033.67
880.08	16131.52
880.398	15921.36
880.716	16053.79
881.034	15980.79
881.352	16027.57
881.67	15892.44
881.988	15864.87
882.306	15757.75
882.624	15799.33
882.941	15743.06
883.259	15637.53
883.577	15702.38
883.894	15716.62
884.212	15709.62
884.529	15567.7
884.846	15551.2
885.164	15486.57
885.481	15382.62
885.798	15515.04
886.115	15352.11
886.432	15415.84
886.75	15319.34
887.067	15322.73
887.383	15244.54
887.7	15261.04
888.017	15150.31
888.334	15116.18
888.651	15043.42
888.967	15120.93
889.284	15056.98
889.6	15030.31
889.917	14940.6
890.233	14934.04
890.55	14899.47
890.866	14847.04
891.182	14850.2
891.498	14879.81
891.815	14694.05
892.131	14665.8
892.447	14609.31
892.763	14598.68
893.079	14494.51
893.395	14528.86
893.71	14476.65
894.026	14433.72
894.342	14428.29
894.657	14334.74
894.973	14225.59
895.289	14224
895.604	14199.37
895.92	14153.05
896.235	14061.75
896.55	14015.65
896.865	14059.04
897.181	13927.97
897.496	13962.09
897.811	13885.03
898.126	13893.84
898.441	13723
898.756	13778.14
899.071	13700.63
899.386	13666.51
899.7	13659.05
900.015	13523.01
900.33	13435.78
900.644	13380.18
900.959	13376.8
901.273	13292.28
901.588	13356.23
901.902	13290.92
902.216	13236.91
902.531	13112.4
902.845	13043.24
903.159	13018.16
903.473	13082.57
903.787	12931.38
904.101	12878.05
904.415	12904.94
904.729	12847.32
905.042	12751.27
905.356	12733.87
905.67	12741.78
905.984	12781.56
906.297	12618.62
906.611	12442.58
906.924	12524.16
907.237	12442.13
907.551	12462.69
907.864	12310.16
908.177	12337.73
908.491	12265.64
908.804	12237.16
909.117	12156.94
909.43	12052.99
909.743	11989.94
910.056	11981.35
910.368	12016.15
910.681	11921.47
910.994	11838.08
911.307	11878.76
911.619	11639.67
911.932	11734.8
912.244	11638.99
912.557	11612.32
912.869	11551.08
913.181	11525.32
913.494	11560.12
913.806	11410.29
914.118	11347.47
914.43	11402.16
914.742	11199.68
915.054	11179.11
915.366	11145.67
915.678	11105.67
915.99	11098.21
916.302	11007.14
916.613	10970.3
916.925	11034.71
917.236	10936.18
917.548	10847.14
917.859	10915.62
918.171	10851.44
918.482	10747.26
918.794	10689.41
919.105	10651.44
919.416	10531.22
919.727	10585.91
920.038	10535.74
920.349	10439.47
920.66	10414.16
920.971	10370.32
921.282	10354.05
921.593	10283.77
921.903	10242.41
922.214	10154.28
922.525	10168.97
922.835	10097.11
923.146	10061.18
923.456	9979.82
923.767	9955.42
924.077	10020.73
924.387	9860.96
924.697	9846.94
925.008	9893.95
925.318	9840.84
925.628	9777.79
925.938	9741.18
926.248	9605.82
926.558	9602.21
926.867	9586.84
927.177	9450.8
927.487	9531.25
927.796	9413.28
928.106	9454.41
928.416	9431.59
928.725	9341.87
929.034	9276.79
929.344	9281.31
929.653	9243.12
929.962	9190.92
930.271	9126.51
930.581	9181.2
930.89	9107.08
931.199	9027.31
931.508	9070.24
931.817	8936.23
932.125	8993.63
932.434	8895.78
932.743	8788.22
933.051	8839.29
933.36	8739.18
933.669	8705.73
933.977	8652.63
934.286	8674.32
934.594	8564.94
934.902	8617.37
935.21	8558.84
935.519	8514.78
935.827	8470.48
936.135	8420.54
936.443	8392.52
936.751	8324.95
937.059	8296.25
937.367	8259.87
937.674	8255.57
937.982	8277.72
938.29	8183.26
938.597	8125.63
938.905	8117.27
939.213	8039.76
939.52	8085.18
939.827	8064.39
940.135	7931.51
940.442	7893.55
940.749	7848.13
941.056	7844.29
941.363	7828.01
941.67	7771.74
941.977	7734.01
942.284	7697.62
942.591	7647.91
942.898	7673.67
943.205	7566.78
943.511	7557.06
943.818	7567.46
944.125	7451.53
944.431	7495.37
944.738	7462.6
945.044	7438.87
945.35	7389.16
945.657	7282.72
945.963	7312.77
946.269	7276.16
946.575	7295.37
946.881	7181.7
947.187	7207.69
947.493	7184.42
947.799	7096.51
948.105	7073.01
948.41	7058.09
948.716	7009.28
949.022	7038.88
949.327	6961.82
949.633	6888.83
949.938	6925.89
950.244	6910.3
950.549	6837.08
950.854	6808.15
951.16	6832.33
951.465	6739.46
951.77	6753.92
952.075	6711.43
952.38	6702.39
952.685	6657.65
952.99	6577.65
953.294	6598.89
953.599	6580.82
953.904	6524.09
954.209	6449.97
954.513	6483.87
954.818	6423.53
955.122	6422.4
955.426	6382.85
955.731	6392.12
956.035	6317.32
956.339	6301.27
956.643	6259.02
956.948	6198.9
957.252	6219.47
957.556	6232.12
957.86	6168.4
958.163	6168.17
958.467	6168.17
958.771	6120.04
959.075	6078.23
959.378	6056.99
959.682	6059.7
959.985	6026.25
960.289	5982.41
960.592	5910.32
960.896	5943.32
961.199	5910.32
961.502	5844.79
961.805	5802.53
962.108	5767.5
962.411	5772.02
962.714	5734.06
963.017	5680.73
963.32	5694.29
963.623	5664.23
963.926	5662.42
964.228	5593.5
964.531	5679.82
964.833	5634.17
965.136	5539.26
965.438	5518.24
965.741	5466.72
966.043	5507.4
966.345	5418.13
966.648	5418.81
966.95	5414.74
967.252	5363.45
967.554	5342.66
967.856	5374.75
968.158	5298.59
968.46	5298.36
968.761	5247.07
969.063	5214.98
969.365	5204.81
969.666	5207.29
969.968	5134.07
970.269	5132.94
970.571	5134.3
970.872	5104.7
971.174	5024.92
971.475	5061.53
971.776	5046.39
972.077	5019.05
972.378	4987.86
972.679	4945.83
972.98	4910.58
973.281	4885.04
973.582	4885.49
973.883	4877.36
974.183	4850.47
974.484	4834.65
974.785	4802.11
975.085	4768.43
975.386	4788.55
975.686	4762.56
975.986	4727.31
976.287	4711.03
976.587	4678.04
976.887	4612.05
977.187	4661.54
977.487	4603.01
977.787	4590.36
978.087	4569.12
978.387	4572.73
978.687	4544.71
978.987	4494.99
979.286	4506.97
979.586	4485.05
979.885	4478.95
980.185	4440.53
980.484	4411.16
980.784	4374.55
981.083	4364.6
981.382	4362.34
981.682	4372.74
981.981	4302.91
982.28	4332.97
982.579	4264.94
982.878	4267.88
983.177	4236.02
983.475	4224.72
983.774	4180.65
984.073	4156.47
984.372	4156.92
984.67	4114.67
984.969	4127.09
985.267	4092.29
985.566	4032.18
985.864	4035.57
986.162	4038.96
986.461	4028.79
986.759	3978.85
987.057	3984.05
987.355	3949.92
987.653	3970.26
987.951	3925.97
988.249	3935.46
988.547	3885.07
988.844	3873.09
989.142	3852.98
989.44	3829.93
989.737	3820.89
990.035	3830.15
990.332	3809.36
990.63	3714.9
990.927	3740.66
991.224	3705.86
991.521	3712.64
991.819	3705.41
992.116	3671.74
992.413	3645.07
992.71	3620.89
993.006	3589.48
993.303	3565.53
993.6	3597.17
993.897	3541.57
994.193	3597.84
994.49	3583.61
994.787	3502.48
995.083	3534.79
995.379	3465.42
995.676	3463.38
995.972	3408.02
996.268	3398.3
996.565	3394.68
996.861	3376.61
997.157	3350.84
997.453	3331.18
997.749	3313.56
998.044	3294.57
998.34	3311.75
998.636	3283.05
998.932	3245.99
999.227	3220.9
999.523	3201.47
999.818	3208.7
1000.114	3165.54
1000.409	3215.03
1000.704	3153.79
1001	3149.04
1001.295	3122.6
1001.59	3128.93
1001.885	3107.69
1002.18	3083.28
1002.475	3085.99
1002.77	3043.51
1003.065	3013.9
1003.359	3011.87
1003.654	2996.73
1003.949	2986.11
1004.243	2977.07
1004.538	2936.84
1004.832	2921.7
1005.127	2883.96
1005.421	2887.13
1005.715	2854.36
1006.009	2918.31
1006.304	2849.61
1006.598	2810.29
1006.892	2788.37
1007.186	2787.24
1007.48	2768.26
1007.773	2759.67
1008.067	2764.87
1008.361	2719.9
1008.655	2717.87
1008.948	2699.79
1009.242	2656.4
1009.535	2647.59
1009.829	2646.91
1010.122	2626.34
1010.415	2588.38
1010.708	2572.79
1011.001	2599.23
1011.295	2577.08
1011.588	2560.13
1011.881	2547.93
1012.173	2490.08
1012.466	2477.42
1012.759	2478.78
1013.052	2475.39
1013.344	2445.56
1013.637	2457.99
1013.93	2430.87
1014.222	2422.05
1014.514	2411.66
1014.807	2379.8
1015.099	2401.26
1015.391	2368.95
1015.683	2369.17
1015.976	2327.59
1016.268	2311.1
1016.56	2300.02
1016.851	2251.44
1017.143	2248.73
1017.435	2244.21
1017.727	2257.77
1018.018	2223.87
1018.31	2184.32
1018.602	2202.85
1018.893	2186.81
1019.185	2173.25
1019.476	2173.02
1019.767	2151.78
1020.058	2108.62
1020.35	2118.79
1020.641	2101.39
1020.932	2095.28
1021.223	2038.11
1021.514	2069.3
1021.804	2021.61
1022.095	2005.79
1022.386	1982.97
1022.677	1985.23
1022.967	1972.12
1023.258	1930.32
1023.548	1959.92
1023.839	1910.88
1024.129	1952.24
1024.419	1891.22
1024.709	1907.27
1025	1902.75
1025.29	1896.65
1025.58	1814.61
1025.87	1838.34
1026.16	1806.03
1026.449	1831.11
1026.739	1760.6
1027.029	1774.39
1027.319	1764.45
1027.608	1768.96
1027.898	1785.01
1028.187	1761.51
1028.477	1713.37
1028.766	1712.7
1029.055	1685.35
1029.344	1678.12
1029.634	1679.02
1029.923	1654.84
1030.212	1630.66
1030.501	1653.71
1030.79	1631.79
1031.078	1599.25
1031.367	1634.73
1031.656	1605.13
1031.945	1568.97
1032.233	1580.5
1032.522	1573.26
1032.81	1561.96
1033.099	1531.91
1033.387	1549.99
1033.675	1565.58
1033.963	1494.62
1034.251	1497.33
1034.54	1524
1034.828	1481.29
1035.116	1471.8
1035.403	1442.19
1035.691	1439.71
1035.979	1435.41
1036.267	1427.73
1036.554	1432.93
1036.842	1380.5
1037.129	1391.35
1037.417	1379.82
1037.704	1399.03
1037.992	1357.45
1038.279	1367.39
1038.566	1358.35
1038.853	1358.35
1039.14	1358.35
