Data from 583_FLMS001491_001.txt Node
Date: Thu Apr 19 15:43:15 BST 2018
User: hsy
Spectrometer: FLMS00149
Trigger mode: 0
Integration Time (sec): 1.000000E-2
Scans to average: 10
Electric dark correction enabled: true
Nonlinearity correction enabled: false
Boxcar width: 0
XAxis mode: Wavelengths
Number of Pixels in Spectrum: 2048
>>>>>Begin Spectral Data<<<<<
341.393	-7.1
341.776	-7.1
342.16	-7.1
342.543	-44.84
342.927	-70.38
343.31	-87.1
343.693	-75.35
344.077	-40.32
344.46	-61.34
344.843	-54.11
345.226	-51.4
345.61	-33.77
345.993	-20.44
346.376	5.55
346.759	10.97
347.142	29.73
347.525	49.17
347.908	60.69
348.291	71.76
348.674	98.2
349.057	97.75
349.44	116.96
349.823	122.61
350.206	158.09
350.588	229.5
350.971	220.46
351.354	260.46
351.737	269.95
352.119	293.68
352.502	302.72
352.884	313.79
353.267	333.68
353.65	340.68
354.032	344.98
354.414	338.42
354.797	336.84
355.179	354.47
355.562	362.15
355.944	364.19
356.326	358.54
356.709	365.77
357.091	384.07
357.473	379.33
357.855	376.61
358.238	394.69
358.62	389.04
359.002	362.15
359.384	402.6
359.766	367.8
360.148	390.4
360.53	388.82
360.912	409.83
361.294	371.64
361.676	401.25
362.057	380.23
362.439	372.55
362.821	352.43
363.203	399.44
363.584	403.73
363.966	378.2
364.348	362.38
364.729	355.82
365.111	381.13
365.493	358.54
365.874	361.25
366.256	364.41
366.637	359.21
367.019	376.84
367.4	368.93
367.781	365.99
368.163	384.3
368.544	366.9
368.925	396.27
369.306	369.83
369.688	362.83
370.069	386.78
370.45	386.33
370.831	381.59
371.212	372.55
371.593	364.64
371.974	394.24
372.355	386.56
372.736	383.39
373.117	405.54
373.498	368.7
373.879	403.51
374.26	374.35
374.641	380.23
375.021	380
375.402	404.86
375.783	402.38
376.163	387.46
376.544	409.83
376.925	394.02
377.305	387.01
377.686	399.21
378.066	381.59
378.447	422.71
378.827	410.74
379.208	391.76
379.588	437.4
379.968	415.03
380.349	423.62
380.729	410.06
381.109	427.01
381.489	423.17
381.87	403.96
382.25	431.08
382.63	460.68
383.01	430.17
383.39	443.96
383.77	452.77
384.15	453.45
384.53	438.76
384.91	423.17
385.29	473.11
385.67	462.94
386.049	464.07
386.429	488.48
386.809	452.54
387.189	473.56
387.568	459.55
387.948	483.96
388.328	483.05
388.707	472.66
389.087	480.79
389.466	478.98
389.846	481.92
390.225	488.02
390.605	503.62
390.984	501.81
391.363	513.56
391.743	513.79
392.122	505.65
392.501	508.81
392.881	523.73
393.26	519.66
393.639	526.89
394.018	520.11
394.397	514.69
394.776	530.28
395.155	521.24
395.534	503.62
395.913	522.6
396.292	538.19
396.671	526.67
397.05	538.87
397.429	539.77
397.808	542.03
398.186	546.33
398.565	562.82
398.944	585.2
399.323	556.04
399.701	568.93
400.08	572.99
400.458	568.47
400.837	575.71
401.215	570.51
401.594	575.93
401.972	574.58
402.351	580.9
402.729	604.86
403.107	610.05
403.486	596.5
403.864	587.91
404.242	618.42
404.62	627.68
404.999	627
405.377	622.03
405.755	639.43
406.133	651.41
406.511	657.06
406.889	640.11
407.267	668.36
407.645	655.25
408.023	668.81
408.401	673.56
408.779	668.81
409.156	684.85
409.534	709.94
409.912	707.68
410.29	706.78
410.667	701.13
411.045	710.16
411.422	743.38
411.8	722.14
412.178	733.89
412.555	755.59
412.933	750.84
413.31	777.73
413.687	769.82
414.065	776.15
414.442	796.49
414.819	779.09
415.197	799.88
415.574	822.48
415.951	841.23
416.328	816.6
416.705	817.05
417.082	842.59
417.46	853.66
417.837	842.82
418.214	860.22
418.591	859.99
418.967	838.3
419.344	867.22
419.721	885.08
420.098	877.17
420.475	887.11
420.852	908.13
421.228	884.85
421.605	891.86
421.982	892.08
422.358	923.94
422.735	915.13
423.111	919.2
423.488	944.51
423.864	928.24
424.241	955.81
424.617	956.03
424.994	989.03
425.37	983.15
425.746	970.5
426.123	975.02
426.499	981.34
426.875	1015.69
427.251	1032.42
427.627	1034
428.003	1046.65
428.379	1038.29
428.756	1063.6
429.132	1075.81
429.507	1077.61
429.883	1073.32
430.259	1101.34
430.635	1108.12
431.011	1123.04
431.387	1137.72
431.763	1152.41
432.138	1150.38
432.514	1180.66
432.89	1185.41
433.265	1215.69
433.641	1231.06
434.016	1210.94
434.392	1233.54
434.767	1269.7
435.143	1253.43
435.518	1288.23
435.894	1285.74
436.269	1288.45
436.644	1285.52
437.02	1315.12
437.395	1353.99
437.77	1360.54
438.145	1360.77
438.52	1374.33
438.895	1383.82
439.271	1395.34
439.646	1386.98
440.021	1401.67
440.395	1433.54
440.77	1437.83
441.145	1421.11
441.52	1472.4
441.895	1447.09
442.27	1474.21
442.645	1452.07
443.019	1468.34
443.394	1475.34
443.769	1508.34
444.143	1513.08
444.518	1488.22
444.892	1520.54
445.267	1541.33
445.641	1510.14
446.016	1544.49
446.39	1544.04
446.764	1572.97
447.139	1575
447.513	1569.13
447.887	1584.27
448.262	1598.5
448.636	1611.16
449.01	1626.07
449.384	1640.31
449.758	1647.09
450.132	1659.07
450.506	1689.8
450.88	1707.65
451.254	1696.35
451.628	1707.43
452.002	1761.21
452.376	1730.25
452.75	1792.4
453.123	1766.41
453.497	1812.28
453.871	1804.6
454.244	1887.08
454.618	1880.3
454.992	1910.13
455.365	1887.31
455.739	1939.29
456.112	1946.29
456.486	1974.76
456.859	1999.62
457.232	2023.8
457.606	2061.77
457.979	2052.28
458.352	2099.05
458.725	2142.67
459.099	2123.91
459.472	2177.47
459.845	2211.59
460.218	2216.34
460.591	2235.55
460.964	2254.53
461.337	2316.22
461.71	2337.47
462.083	2388.76
462.456	2377.01
462.829	2398.48
463.201	2429.67
463.574	2407.97
463.947	2463.11
464.32	2517.58
464.692	2540.85
465.065	2572.49
465.438	2578.36
465.81	2610.91
466.183	2619.04
466.555	2691.81
466.928	2696.55
467.3	2723.9
467.672	2754.18
468.045	2797.57
468.417	2810.22
468.789	2807.51
469.161	2881.41
469.534	2944.23
469.906	2927.73
470.278	3015.19
470.65	3025.81
471.022	3033.72
471.394	3100.84
471.766	3174.96
472.138	3218.57
472.51	3302.41
472.882	3314.84
473.253	3315.29
473.625	3406.37
473.997	3403.43
474.369	3498.79
474.74	3507.83
475.112	3546.02
475.484	3703.98
475.855	3692.69
476.227	3785.56
476.598	3807.94
476.97	3919.57
477.341	3960.47
477.713	4044.99
478.084	4041.15
478.455	4223.29
478.827	4234.82
479.198	4361.37
479.569	4363.18
479.94	4489.95
480.311	4530.18
480.682	4629.16
481.053	4733.34
481.424	4832.99
481.795	4877.29
482.166	4993.89
482.537	5077.51
482.908	5181.69
483.279	5243.61
483.65	5362.25
484.021	5486.54
484.391	5622.13
484.762	5634.78
485.133	5711.62
485.503	5902.8
485.874	6012.85
486.244	6084.03
486.615	6234.77
486.985	6299.17
487.356	6434.99
487.726	6561.54
488.097	6764.02
488.467	6806.5
488.837	6951.13
489.207	7080.84
489.578	7283.55
489.948	7348.63
490.318	7585.24
490.688	7582.3
491.058	7841.05
491.428	7975.74
491.798	8120.14
492.168	8352.22
492.538	8470.19
492.908	8610.52
493.278	8848.71
493.648	8859.1
494.017	9179.77
494.387	9215.25
494.757	9350.16
495.126	9578.86
495.496	9776.37
495.866	9953.76
496.235	10109.01
496.605	10356.01
496.974	10468.55
497.344	10646.63
497.713	10913.51
498.082	11009.33
498.452	11249.1
498.821	11318.7
499.19	11626.26
499.559	11799.14
499.928	11974.5
500.298	12160.71
500.667	12440.03
501.036	12580.14
501.405	12850.64
501.774	13005.66
502.143	13214.47
502.512	13500.79
502.88	13738.75
503.249	13944.62
503.618	14166.31
503.987	14286.98
504.356	14501.44
504.724	14845.16
505.093	14934.42
505.462	15113.18
505.83	15423.22
506.199	15633.84
506.567	15972.14
506.936	16101.62
507.304	16494.61
507.672	16701.61
508.041	16871.1
508.409	17157.87
508.777	17422.04
509.145	17667.01
509.514	17674.92
509.882	18075.36
510.25	18115.58
510.618	18525.06
510.986	18619.75
511.354	18922.34
511.722	19200.3
512.09	19474.87
512.458	19490.69
512.826	19861.75
513.193	20046.38
513.561	20153.95
513.929	20486.37
514.297	20738.79
514.664	20965.23
515.032	21159.8
515.4	21401.82
515.767	21656.05
516.135	21791.42
516.502	21864.64
516.869	22258.52
517.237	22371.97
517.604	22390.95
517.972	22803.37
518.339	22993.19
518.706	23183.7
519.073	23350.7
519.44	23522.67
519.808	23849.44
520.175	23976.9
520.542	24326.95
520.909	24461.18
521.276	24652.81
521.643	24915.86
522.009	25127.15
522.376	25274.49
522.743	25509.96
523.11	25829.5
523.477	26107.01
523.843	26105.88
524.21	26648.69
524.577	26737.5
524.943	26871.74
525.31	27114.22
525.676	27422
526.043	27571.61
526.409	27826.06
526.776	28058.6
527.142	28138.6
527.508	28333.17
527.874	28646.61
528.241	28776.09
528.607	28894.06
528.973	29318.9
529.339	29353.71
529.705	29648.16
530.071	29873.01
530.437	29994.59
530.803	30229.61
531.169	30360.46
531.535	30406.56
531.901	30618.76
532.267	30851.97
532.632	31035.7
532.998	31055.36
533.364	31353.43
533.73	31449.92
534.095	31684.94
534.461	31616.02
534.826	31817.37
535.192	31867.09
535.557	32194.53
535.923	32142.56
536.288	32418.03
536.653	32388.43
537.019	32439.73
537.384	32608.08
537.749	32699.61
538.114	32764.92
538.479	32665.93
538.845	32917.45
539.21	32944.12
539.575	33067.51
539.94	33145.92
540.305	33279.93
540.67	33371
541.034	33417.1
541.399	33627.49
541.764	33575.06
542.129	33681.95
542.494	33829.29
542.858	33955.39
543.223	33637.21
543.587	34095.05
543.952	33984.54
544.316	34091.89
544.681	33968.05
545.045	34234.93
545.41	34477.19
545.774	34262.5
546.138	34236.29
546.503	34497.3
546.867	34604.41
547.231	34629.95
547.595	34637.18
547.959	34783.17
548.324	34826.78
548.688	34884.86
549.052	34918.53
549.416	34821.36
549.779	35010.51
550.143	35216.38
550.507	35252.76
550.871	35245.08
551.235	35367.33
551.599	35565.29
551.962	35568.68
552.326	35703.14
552.689	35685.06
553.053	35556.25
553.417	35815.91
553.78	36163.92
554.143	36073.3
554.507	36235.33
554.87	36235.33
555.234	36562.33
555.597	36195.11
555.96	36542.67
556.323	36673.29
556.686	36593.97
557.05	36869.89
557.413	36927.97
557.776	36891.36
558.139	37133.61
558.502	37079.15
558.865	37259.26
559.228	37502.42
559.59	37431.69
559.953	37571.57
560.316	37818.34
560.679	37715.75
561.041	38062.18
561.404	38232.12
561.767	38455.84
562.129	38270.31
562.492	38605.21
562.854	38766.11
563.217	38649.51
563.579	38870.07
563.941	38996.16
564.304	39175.82
564.666	39435.25
565.028	39319.77
565.39	39507.11
565.753	39660.55
566.115	39817.61
566.477	40042.24
566.839	39999.08
567.201	40441.55
567.563	40383.7
567.925	40605.16
568.287	40623.24
568.648	40776.68
569.01	40931.71
569.372	41252.15
569.734	41058.26
570.095	41421.18
570.457	41542.76
570.819	41527.85
571.18	41490.11
571.542	41817.33
571.903	41815.07
572.265	41996.54
572.626	42150.21
572.987	42173.48
573.349	42235.4
573.71	42386.58
574.071	42462.51
574.432	42598.78
574.794	42847.36
575.155	42735.05
575.516	42824.54
575.877	43020.46
576.238	43017.3
576.599	43183.4
576.96	43074.93
577.32	43253
577.681	43267.69
578.042	43412.77
578.403	43299.78
578.763	43498.19
579.124	43423.39
579.485	43587.46
579.845	43686.44
580.206	43691.86
580.566	43728.02
580.927	43733.21
581.287	43818.41
581.648	43689.37
582.008	43873.55
582.368	43829.94
582.728	43954
583.089	43895.47
583.449	43901.12
583.809	43788.81
584.169	43975.69
584.529	43872.87
584.889	44123.49
585.249	43866.77
585.609	43667.91
585.969	44011.85
586.329	43671.97
586.688	44122.36
587.048	43842.82
587.408	43820.22
587.768	43742.48
588.127	43782.93
588.487	43780.67
588.846	44080.1
589.206	43637.85
589.565	43573.9
589.925	43926.43
590.284	43834.23
590.643	43815.7
591.003	43822.03
591.362	43996.48
591.721	43614.12
592.08	43674.23
592.44	43892.98
592.799	43789.03
593.158	43742.71
593.517	43795.36
593.876	43837.62
594.235	43749.94
594.593	43734.34
594.952	43809.14
595.311	43803.27
595.67	43775.47
596.029	44015.01
596.387	43971.17
596.746	44077.61
597.104	43822.25
597.463	43811.63
597.822	43924.4
598.18	43920.55
598.538	43758.07
598.897	44075.8
599.255	43789.71
599.613	44302.24
599.972	44004.39
600.33	44066.77
600.688	43924.4
601.046	44095.01
601.404	44362.35
601.762	44269.47
602.12	44426.08
602.478	44373.65
602.836	44361.9
603.194	44168.46
603.552	44249.81
603.91	44263.14
604.268	44500.88
604.625	44346.31
604.983	44631.5
605.341	44301.79
605.698	44550.37
606.056	44810.47
606.413	44590.82
606.771	44865.84
607.128	44708.33
607.485	44691.83
607.843	44681.89
608.2	44830.13
608.557	44944.03
608.914	45029.68
609.272	45123.91
609.629	45221.76
609.986	45351.48
610.343	45207.07
610.7	45646.16
611.057	45379.27
611.414	45348.09
611.771	45522.32
612.127	45591.47
612.484	45603.67
612.841	45659.49
613.198	45431.93
613.554	45699.49
613.911	45840.73
614.267	45890.67
614.624	45840.73
614.98	45968.64
615.337	46171.79
615.693	46129.08
616.05	46221.96
616.406	46380.38
616.762	46227.39
617.118	46318.91
617.475	46282.53
617.831	46474.39
618.187	46551.67
618.543	46553.48
618.899	46724.1
619.255	46694.94
619.611	46692.68
619.967	46780.14
620.323	46911.21
620.678	46856.07
621.034	46752.34
621.39	46587.38
621.746	46775.85
622.101	47138.32
622.457	46889.97
622.812	47083.18
623.168	47051.55
623.523	46882.96
623.879	47165.67
624.234	46952.79
624.589	47075.73
624.945	46937.88
625.3	47092.9
625.655	47217.64
626.01	47117.53
626.365	47256.51
626.72	46907.14
627.075	47130.64
627.43	46997.76
627.785	47091.32
628.14	47109.62
628.495	47120.92
628.85	47106.91
629.205	47063.97
629.559	47218.09
629.914	47083.63
630.269	46982.62
630.623	46915.5
630.978	46782.17
631.332	46950.53
631.687	46876.41
632.041	46772.46
632.396	46819.91
632.75	46776.3
633.104	46786.69
633.459	46583.76
633.813	46595.29
634.167	46564.78
634.521	46620.82
634.875	46516.42
635.229	46524.33
635.583	46356.65
635.937	46250.89
636.291	46245.46
636.645	46127.05
636.999	46076.2
637.352	46211.79
637.706	45962.53
638.06	46081.18
638.413	46069.2
638.767	45824.01
639.121	45865.14
639.474	45723.44
639.828	45752.82
640.181	45769.77
640.534	45927.73
640.888	45680.06
641.241	45452.27
641.594	45556.67
641.947	45690.23
642.301	45473.28
642.654	45529.1
643.007	45367.75
643.36	45471.25
643.713	45510.12
644.066	45675.31
644.419	45371.59
644.771	44847.99
645.124	44501.33
645.477	44586.53
645.83	44390.37
646.182	44330.03
646.535	44159.64
646.888	44450.03
647.24	44280.09
647.593	44586.3
647.945	44327.1
648.298	44095.24
648.65	44007.56
649.002	43850.05
649.355	43661.35
649.707	43514.24
650.059	43503.39
650.411	44138.18
650.763	44405.97
651.115	44963.69
651.467	44848.21
651.819	44707.43
652.171	44486.87
652.523	44509.69
652.875	44606.64
653.227	44478.96
653.578	44811.83
653.93	44679.18
654.282	44473.31
654.633	44435.57
654.985	44536.13
655.337	44529.58
655.688	44482.57
656.039	44642.12
656.391	44321.45
656.742	44423.14
657.094	44619.97
657.445	44599.86
657.796	44623.59
658.147	44313.99
658.498	44533.19
658.849	44483.93
659.2	44478.51
659.551	44382.24
659.902	44585.17
660.253	44408.9
660.604	44633.98
660.955	44400.54
661.306	44559.18
661.656	44549.24
662.007	44546.98
662.358	44473.76
662.708	44483.25
663.059	44408.68
663.409	44348.79
663.76	44540.65
664.11	44638.28
664.461	44741.78
664.811	44508.34
665.161	44551.27
665.511	44524.83
665.862	44511.95
666.212	44523.48
666.562	44749.23
666.912	44572.06
667.262	44439.18
667.612	44498.84
667.962	44534.1
668.312	44412.52
668.662	44513.08
669.011	44567.32
669.361	44520.76
669.711	44684.15
670.06	44535
670.41	44439.18
670.76	44403.03
671.109	44493.65
671.459	44511.05
671.808	44523.25
672.157	44533.42
672.507	44337.72
672.856	44176.82
673.205	44230.83
673.554	44398.51
673.904	44148.8
674.253	44566.86
674.602	44330.71
674.951	43678.3
675.3	43636.04
675.649	44284.61
675.998	44217.72
676.346	44248.23
676.695	44176.37
677.044	44042.58
677.393	44204.39
677.741	44254.1
678.09	44031.29
678.438	43919.42
678.787	44140.66
679.135	44093.88
679.484	43827.68
679.832	43852.53
680.181	43848.24
680.529	43841.46
680.877	43715.81
681.225	43651.18
681.573	43900.89
681.922	43531.86
682.27	43429.49
682.618	43445.76
682.966	43328.48
683.314	43402.83
683.661	43304.07
684.009	43189.73
684.357	43038.77
684.705	42919.9
685.053	43045.77
685.4	42750.64
685.748	42790.41
686.095	42684.88
686.443	42319.01
686.79	42390.65
687.138	42522.85
687.485	42368.05
687.832	42202.63
688.18	42166.93
688.527	41943.66
688.874	41927.61
689.221	41918.8
689.568	41828.63
689.915	41597.45
690.262	41596.32
690.609	41401.52
690.956	41222.09
691.303	41309.55
691.65	41144.36
691.997	41036.56
692.344	40855.55
692.69	40811.03
693.037	40799.28
693.383	40308.45
693.73	40365.85
694.077	40400.87
694.423	40269.12
694.769	40189.58
695.116	40039.98
695.462	39917.27
695.808	39716.82
696.155	39796.59
696.501	39494
696.847	39569.71
697.193	39195.25
697.539	39159.55
697.885	38877.07
698.231	38809.5
698.577	38813.8
698.923	38675.95
699.269	38370.64
699.614	38318.44
699.96	38203.19
700.306	38233.92
700.651	38024.89
700.997	37880.49
701.342	37868.06
701.688	37819.92
702.033	37548.07
702.379	37462.64
702.724	37268.53
703.069	37342.65
703.415	36963.67
703.76	36901.98
704.105	36860.4
704.45	36850.91
704.795	36645.72
705.14	36686.62
705.485	36614.98
705.83	36226.75
706.175	36291.15
706.52	36300.64
706.865	36097.71
707.209	36002.8
707.554	35893.42
707.899	35686.19
708.243	35625.18
708.588	35624.5
708.932	35546.09
709.277	35504.5
709.621	35258.18
709.966	35055.48
710.31	35192.87
710.654	34860.91
710.998	35060
711.342	34996.27
711.687	34808.7
712.031	34666.56
712.375	34520.8
712.719	34355.16
713.063	34401.93
713.407	34579.1
713.75	34431.31
714.094	34314.48
714.438	34175.27
714.782	34164.2
715.125	33990.65
715.469	34121.49
715.812	33931.21
716.156	33714.04
716.499	33827.03
716.843	33854.15
717.186	33671.33
717.53	33867.94
717.873	33865.68
718.216	33653.03
718.559	33565.8
718.902	33189.76
719.246	33384.79
719.589	33239.71
719.932	33114.74
720.275	33288.97
720.617	33227.95
720.96	33203.32
721.303	33096.88
721.646	33336.88
721.989	33009.65
722.331	33054.63
722.674	33100.05
723.016	33108.41
723.359	32851.47
723.701	32977.34
724.044	32860.51
724.386	32553.17
724.729	32886.72
725.071	32650.79
725.413	32808.53
725.755	32749.77
726.097	32635.88
726.439	32551.36
726.782	32525.15
727.124	32733.5
727.465	32615.77
727.807	32503.23
728.149	32592.72
728.491	32420.52
728.833	32612.6
729.175	32467.97
729.516	32559.95
729.858	32626.84
730.199	32455.32
730.541	32603.34
730.882	32421.65
731.224	32471.82
731.565	32496.67
731.906	32429.56
732.248	32434.75
732.589	32413.74
732.93	32218.49
733.271	32406.51
733.612	32312.05
733.953	32612.6
734.294	32376.68
734.635	32414.19
734.976	32488.54
735.317	32390.01
735.658	32397.69
735.999	32273.63
736.339	32403.34
736.68	32474.75
737.021	32540.97
737.361	32391.82
737.702	32702.54
738.042	32482.44
738.383	32651.92
738.723	32719.49
739.063	32496.45
739.404	32671.58
739.744	32529.44
740.084	32671.13
740.424	32637.46
740.764	32676.1
741.104	32999.03
741.444	32742.77
741.784	32639.27
742.124	32895.08
742.464	32782.77
742.804	32815.76
743.143	32835.65
743.483	32909.77
743.823	32685.14
744.162	32804.01
744.502	32920.17
744.841	33060.73
745.181	33154.06
745.52	32964.46
745.86	33286.26
746.199	33301.17
746.538	33318.12
746.877	33399.25
747.216	33424.56
747.556	33552.01
747.895	33465.24
748.234	33552.92
748.573	33499.59
748.911	33555.4
749.25	33596.76
749.589	33590.2
749.928	33828.62
750.267	33784.78
750.605	33752.23
750.944	33909.74
751.283	33912
751.621	34165.1
751.96	34105.45
752.298	34154.26
752.636	34106.57
752.975	34304.31
753.313	34173.24
753.651	34462.27
753.989	34492.1
754.327	34524.42
754.666	34360.81
755.004	34640.8
755.342	34491.42
755.679	34712.43
756.017	34580.46
756.355	34802.6
756.693	34710.17
757.031	34927.34
757.368	34787.69
757.706	34856.61
758.044	34757.86
758.381	34971.18
758.719	34943.62
759.056	35063.39
759.394	34917.18
759.731	34935.25
760.068	34913.79
760.405	35011.18
760.743	34887.35
761.08	35083.95
761.417	34917.85
761.754	34967.34
762.091	35067.91
762.428	34853
762.765	34951.07
763.102	35130.05
763.438	35066.55
763.775	34786.78
764.112	34804.64
764.449	34975.25
764.785	34868.36
765.122	34856.16
765.458	34733.23
765.795	34643.28
766.131	34878.08
766.467	34674.47
766.804	34587.47
767.14	34496.62
767.476	34418.66
767.812	34362.16
768.148	34488.26
768.485	34324.42
768.821	34205.1
769.157	34090.53
769.492	34087.59
769.828	34041.04
770.164	33795.4
770.5	33797.43
770.836	33800.14
771.171	33814.15
771.507	33653.93
771.842	33394.5
772.178	33486.93
772.513	33436.54
772.849	33328.74
773.184	33308.63
773.519	33267.27
773.855	33037
774.19	33093.27
774.525	33014.4
774.86	32976.44
775.195	32813.05
775.53	32669.78
775.865	32567.18
776.2	32401.76
776.535	32201.31
776.87	32240.18
777.205	32116.34
777.539	32053.52
777.874	32189.11
778.209	31791.38
778.543	31873.41
778.878	31708.9
779.212	31667.32
779.547	31434.33
779.881	31502.12
780.215	31156.6
780.55	31267.78
780.884	30977.17
781.218	30978.97
781.552	31000.67
781.886	30711.41
782.22	30726.1
782.554	30500.12
782.888	30245.89
783.222	30392.77
783.556	30192.33
783.889	30087.25
784.223	29884.77
784.557	29883.41
784.89	29949.17
785.224	29640.93
785.557	29641.83
785.891	29482.52
786.224	29368.17
786.558	29466.24
786.891	29210.43
787.224	28906.71
787.557	29007.73
787.891	29042.75
788.224	28825.36
788.557	28715.3
788.89	28823.32
789.223	28589.21
789.556	28380.62
789.888	28388.31
790.221	28345.14
790.554	28062.44
790.887	28161.65
791.219	27950.58
791.552	27980.86
791.884	27800.3
792.217	27784.03
792.549	27610.02
792.882	27458.61
793.214	27372.74
793.546	27504.26
793.879	27296.81
794.211	27048.46
794.543	27161.9
794.875	26931.62
795.207	26997.84
795.539	26890.27
795.871	26881.68
796.203	26835.35
796.535	26547
796.867	26548.36
797.198	26471.07
797.53	26496.15
797.862	26120.57
798.193	26288.93
798.525	26119.21
798.856	26285.31
799.188	25831.54
799.519	25872.22
799.85	25682.84
800.182	25703.41
800.513	25834.02
800.844	25465.22
801.175	25627.93
801.506	25654.82
801.837	25456.41
802.168	25428.61
802.499	25283.53
802.83	25136.64
803.161	25061.39
803.491	25056.42
803.822	25126.92
804.153	24956.08
804.483	24792.7
804.814	24679.48
805.145	24723.77
805.475	24850.55
805.805	24584.79
806.136	24624.79
806.466	24484
806.796	24429.54
807.126	24216.89
807.457	24218.93
807.787	24182.77
808.117	24074.75
808.447	24026.61
808.777	24095.54
809.107	23914.75
809.436	23853.06
809.766	23902.55
810.096	23884.02
810.426	23607.42
810.755	23717.7
811.085	23583.91
811.414	23580.52
811.744	23486.29
812.073	23547.08
812.403	23499.17
812.732	23291.72
813.061	23323.13
813.39	23091.05
813.719	23125.39
814.049	23299.63
814.378	23189.8
814.707	22900.99
815.036	23032.29
815.365	22893.31
815.693	22702.58
816.022	22694.67
816.351	22755.24
816.68	22545.52
817.008	22651.28
817.337	22504.85
817.665	22434.57
817.994	22462.81
818.322	22478.18
818.651	22280.45
818.979	22361.57
819.307	22353.66
819.636	22330.39
819.964	22278.64
820.292	22193.67
820.62	22256.72
820.948	22265.76
821.276	22270.73
821.604	22174.69
821.932	22308.02
822.259	22135.82
822.587	22175.82
822.915	22155.02
823.243	22144.63
823.57	22021.47
823.898	22187.34
824.225	22090.85
824.553	22045.2
824.88	22062.15
825.207	22248.58
825.535	22097.17
825.862	22217.4
826.189	22091.3
826.516	22237.06
826.843	22262.82
827.17	22212.2
827.497	22276.15
827.824	22259.88
828.151	22283.16
828.478	22216.72
828.805	22298.52
829.131	22206.77
829.458	22223.95
829.785	21972.2
830.111	22035.93
830.438	22235.7
830.764	22176.04
831.09	22199.09
831.417	22091.75
831.743	22361.35
832.069	22215.59
832.395	22101.69
832.722	22154.12
833.048	22065.31
833.374	22231.86
833.7	22082.03
834.026	22136.72
834.351	22055.37
834.677	22090.62
835.003	22080.22
835.329	22102.14
835.654	22098.76
835.98	21894.92
836.306	22014.01
836.631	21943.96
836.956	22075.03
837.282	21993.67
837.607	21869.38
837.932	21880.68
838.258	21873.45
838.583	21759.33
838.908	21684.53
839.233	21708.26
839.558	21567.02
839.883	21582.16
840.208	21480.92
840.533	21525.44
840.858	21538.77
841.182	21449.05
841.507	21553.23
841.832	21404.31
842.156	21468.94
842.481	21319.11
842.805	21295.84
843.13	21258.33
843.454	21200.47
843.778	21153.24
844.103	21196.18
844.427	21049.52
844.751	21042.74
845.075	21070.31
845.399	21018.78
845.723	20905.11
846.047	20932.01
846.371	20623.99
846.695	20668.74
847.019	20583.77
847.343	20457.44
847.666	20480.49
847.99	20261.74
848.313	20346.03
848.637	20283.66
848.96	20124.57
849.284	20056.1
849.607	19956.66
849.931	19917.8
850.254	19828.31
850.577	19668.54
850.9	19687.52
851.223	19572.72
851.546	19443.23
851.869	19344.48
852.192	19446.17
852.515	19299.51
852.838	19080.53
853.161	19148.1
853.483	18967.99
853.806	19021.55
854.129	18994.66
854.451	18985.62
854.774	18795.34
855.096	18790.37
855.419	18667.43
855.741	18642.57
856.063	18552.18
856.385	18454.11
856.708	18427.44
857.03	18365.52
857.352	18353.54
857.674	18340.21
857.996	18218.63
858.318	18159.42
858.64	18183.83
858.961	18165.07
859.283	18142.02
859.605	18016.38
859.926	17906.1
860.248	17929.37
860.57	17865.19
860.891	17829.94
861.212	17667.23
861.534	17659.78
861.855	17627.91
862.176	17702.26
862.498	17530.51
862.819	17645.76
863.14	17606.9
863.461	17592.43
863.782	17431.53
864.103	17524.19
864.424	17422.27
864.745	17330.74
865.065	17363.29
865.386	17274.02
865.707	17285.1
866.027	17274.48
866.348	17250.07
866.668	17133.46
866.989	17151.31
867.309	16987.93
867.63	17020.47
867.95	17052.11
868.27	16947.03
868.59	17063.86
868.91	16848.5
869.23	16926.91
869.55	16836.75
869.87	16950.87
870.19	16788.39
870.51	16807.37
870.83	16785.67
871.15	16621.61
871.469	16657.99
871.789	16646.92
872.109	16608.05
872.428	16573.7
872.748	16523.08
873.067	16581.61
873.386	16543.42
873.706	16548.17
874.025	16420.71
874.344	16408.28
874.663	16390.66
874.982	16439.24
875.301	16373.71
875.62	16389.75
875.939	16293.71
876.258	16285.57
876.577	16135.97
876.896	16249.42
877.214	16107.95
877.533	16142.53
877.852	16104.79
878.17	16076.09
878.489	16058.69
878.807	16064.79
879.125	16008.29
879.444	16002.19
879.762	15899.37
880.08	16040.16
880.398	15854.17
880.716	15846.72
881.034	15837.45
881.352	15883.55
881.67	15751.8
881.988	15715.42
882.306	15743.22
882.624	15682.43
882.941	15683.33
883.259	15578.93
883.577	15658.25
883.894	15620.06
884.212	15535.09
884.529	15523.11
884.846	15433.39
885.164	15450.79
885.481	15367.63
885.798	15381.19
886.115	15311.36
886.432	15293.28
886.75	15313.62
887.067	15245.6
887.383	15207.18
887.7	15173.29
888.017	15093.29
888.334	15024.36
888.651	15042.9
888.967	14961.54
889.284	14913.86
889.6	14977.59
889.917	14857.59
890.233	14908.44
890.55	14866.4
890.866	14894.65
891.182	14768.1
891.498	14743.24
891.815	14613.53
892.131	14602.91
892.447	14623.47
892.763	14569.01
893.079	14456.02
893.395	14444.27
893.71	14403.14
894.026	14435.23
894.342	14333.99
894.657	14278.85
894.973	14157.95
895.289	14213.76
895.604	14161.34
895.92	14120.66
896.235	14014.9
896.55	14035.69
896.865	13956.37
897.181	13911.17
897.496	13879.99
897.811	13800.89
898.126	13739.65
898.441	13734.23
898.756	13671.63
899.071	13596.83
899.386	13654.91
899.7	13524.07
900.015	13447.01
900.33	13289.04
900.644	13379.21
900.959	13387.35
901.273	13327.69
901.588	13265.32
901.902	13261.47
902.216	13118.88
902.531	13137.41
902.845	13031.42
903.159	12977.41
903.473	12881.14
903.787	12850.64
904.101	12861.48
904.415	12813.58
904.729	12768.6
905.042	12720.47
905.356	12668.95
905.67	12640.25
905.984	12593.69
906.297	12544.2
906.611	12428.5
906.924	12437.54
907.237	12345.34
907.551	12407.26
907.864	12306.7
908.177	12228.73
908.491	12230.77
908.804	12122.52
909.117	12125.01
909.43	12037.78
909.743	11997.1
910.056	11979.02
910.368	11893.6
910.681	11874.17
910.994	11821.51
911.307	11735.64
911.619	11714.4
911.932	11664.91
912.244	11574.96
912.557	11623.32
912.869	11557.56
913.181	11505.36
913.494	11449.54
913.806	11404.8
914.118	11319.6
914.43	11330.9
914.742	11282.32
915.054	11187.18
915.366	11164.35
915.678	11045.94
915.99	11111.93
916.302	11019.5
916.613	10964.13
916.925	10942.66
917.236	10944.47
917.548	10830.12
917.859	10764.36
918.171	10739.51
918.482	10631.94
918.794	10564.6
919.105	10541.09
919.416	10542.9
919.727	10449.34
920.038	10413.41
920.349	10399.63
920.66	10369.12
920.971	10295.45
921.282	10390.14
921.593	10208.22
921.903	10222.23
922.214	10104.95
922.525	10076.7
922.835	9978.85
923.146	10007.32
923.456	9961
923.767	9977.04
924.077	9945.18
924.387	9876.7
924.697	9793.09
925.008	9817.04
925.318	9756.48
925.628	9713.77
925.938	9683.94
926.248	9622.47
926.558	9559.2
926.867	9535.47
927.177	9435.81
927.487	9419.77
927.796	9312.42
928.106	9392.87
928.416	9336.38
928.725	9294.35
929.034	9224.74
929.344	9189.04
929.653	9187.91
929.962	9064.75
930.271	9094.13
930.581	9026.78
930.89	9004.86
931.199	8946.11
931.508	8954.47
931.817	8893.68
932.125	8893
932.434	8882.83
932.743	8768.03
933.051	8752.67
933.36	8732.1
933.669	8701.14
933.977	8620.92
934.286	8580.92
934.594	8570.98
934.902	8514.25
935.21	8444.88
935.519	8458.66
935.827	8409.4
936.135	8334.37
936.443	8251.44
936.751	8279.23
937.059	8291.89
937.367	8275.84
937.674	8228.39
937.982	8217.54
938.29	8151.78
938.597	8161.27
938.905	8014.61
939.213	8045.34
939.52	7970.99
939.827	8030.42
940.135	7895.29
940.442	7901.39
940.749	7931.44
941.056	7880.82
941.363	7772.13
941.67	7786.14
941.977	7655.97
942.284	7703.2
942.591	7748.62
942.898	7608.29
943.205	7583.43
943.511	7550.66
943.818	7580.49
944.125	7462.08
944.431	7468.18
944.738	7455.07
945.044	7393.15
945.35	7372.81
945.657	7321.06
945.963	7321.74
946.269	7244.23
946.575	7214.85
946.881	7176.89
947.187	7179.6
947.493	7131.69
947.799	7110.9
948.105	7058.47
948.41	7006.27
948.716	7054.63
949.022	6975.08
949.327	6954.97
949.633	6871.58
949.938	6885.82
950.244	6915.2
950.549	6851.25
950.854	6792.49
951.16	6827.29
951.465	6749.1
951.77	6724.24
952.075	6727.63
952.38	6660.06
952.685	6690.12
952.99	6560.63
953.294	6609.67
953.599	6536.23
953.904	6488.09
954.209	6484.02
954.513	6451.93
954.818	6410.35
955.122	6415.1
955.426	6416
955.731	6303.46
956.035	6270.02
956.339	6268.44
956.643	6288.55
956.948	6245.84
957.252	6195.67
957.556	6190.92
957.86	6158.38
958.163	6117.03
958.467	6085.84
958.771	6055.79
959.075	6048.33
959.378	6017.37
959.682	6030.03
959.985	5943.25
960.289	5901.21
960.592	5911.61
960.896	5871.16
961.199	5867.32
961.502	5869.35
961.805	5819.41
962.108	5797.26
962.411	5801.78
962.714	5688.57
963.017	5655.8
963.32	5713.88
963.623	5607.89
963.926	5629.36
964.228	5606.31
964.531	5594.33
964.833	5555.69
965.136	5530.6
965.438	5509.59
965.741	5478.85
966.043	5449.7
966.345	5406.09
966.648	5393.66
966.95	5390.72
967.252	5362.7
967.554	5271.17
967.856	5312.98
968.158	5271.63
968.46	5233.66
968.761	5246.54
969.063	5238.63
969.365	5188.92
969.666	5162.03
969.968	5119.77
970.269	5140.56
970.571	5111.18
970.872	5061.69
971.174	5074.34
971.475	5052.2
971.776	5051.52
972.077	5001.8
972.378	4943.73
972.679	4974.01
972.98	4973.1
973.281	4876.16
973.582	4906.89
973.883	4824.41
974.183	4816.27
974.484	4840.68
974.785	4723.39
975.085	4735.37
975.386	4735.37
975.686	4733.56
975.986	4679.33
976.287	4688.82
976.587	4663.51
976.887	4585.32
977.187	4562.49
977.487	4585.54
977.787	4557.97
978.087	4564.3
978.387	4548.03
978.687	4553.45
978.987	4547.35
979.286	4432.33
979.586	4411.08
979.885	4380.35
980.185	4357.75
980.484	4371.09
980.784	4394.81
981.083	4314.82
981.382	4289.51
981.682	4338.54
981.981	4274.82
982.28	4249.73
982.579	4237.76
982.878	4249.96
983.177	4212.45
983.475	4195.72
983.774	4161.6
984.073	4145.33
984.372	4120.92
984.67	4168.61
984.969	4061.04
985.267	4074.6
985.566	4056.74
985.864	4052
986.162	4050.19
986.461	3995.28
986.759	3984.66
987.057	3983.53
987.355	3934.94
987.653	3879.35
987.951	3909.4
988.249	3904.43
988.547	3848.39
988.844	3844.55
989.142	3842.74
989.44	3816.07
989.737	3796.86
990.035	3767.71
990.332	3749.86
990.63	3746.7
990.927	3754.83
991.224	3671.22
991.521	3687.49
991.819	3628.28
992.116	3620.6
992.413	3615.4
992.71	3619.92
993.006	3615.4
993.303	3577.89
993.6	3568.17
993.897	3579.47
994.193	3561.62
994.49	3530.43
994.787	3550.09
995.083	3512.13
995.379	3480.49
995.676	3443.88
995.972	3412.24
996.268	3427.61
996.565	3365.91
996.861	3397.33
997.157	3346.93
997.453	3319.59
997.749	3322.98
998.044	3227.16
998.34	3274.17
998.636	3269.19
998.932	3273.49
999.227	3232.81
999.523	3264.9
999.818	3209.99
1000.114	3184.9
1000.409	3164.56
1000.704	3125.02
1001	3161.4
1001.295	3078.01
1001.59	3111.68
1001.885	3057
1002.18	3078.01
1002.475	3043.66
1002.77	3047.28
1003.065	3000.5
1003.359	3012.93
1003.654	2971.57
1003.949	2955.3
1004.243	2925.47
1004.538	2895.42
1004.832	2911.46
1005.127	2920.73
1005.421	2887.06
1005.715	2850.45
1006.009	2839.15
1006.304	2822.43
1006.598	2824.46
1006.892	2800.96
1007.186	2765.7
1007.48	2733.16
1007.773	2730.68
1008.067	2732.94
1008.361	2748.98
1008.655	2725.03
1008.948	2675.99
1009.242	2656.55
1009.535	2648.87
1009.829	2663.56
1010.122	2632.15
1010.415	2576.78
1010.708	2564.35
1011.001	2577.46
1011.295	2525.71
1011.588	2542.21
1011.881	2476.22
1012.173	2490.01
1012.466	2522.77
1012.759	2490.46
1013.052	2442.77
1013.344	2453.17
1013.637	2420.18
1013.93	2400.97
1014.222	2388.54
1014.514	2373.62
1014.807	2363.91
1015.099	2318.94
1015.391	2321.42
1015.683	2328.88
1015.976	2313.96
1016.268	2278.71
1016.56	2267.64
1016.851	2246.17
1017.143	2252.5
1017.435	2228.32
1017.727	2197.58
1018.018	2207.53
1018.31	2182.22
1018.602	2153.29
1018.893	2194.42
1019.185	2144.93
1019.476	2152.16
1019.767	2106.29
1020.058	2129.56
1020.35	2110.58
1020.641	2086.4
1020.932	2095.44
1021.223	2063.8
1021.514	2051.6
1021.804	2024.25
1022.095	1989.45
1022.386	1998.27
1022.677	1976.35
1022.967	1968.21
1023.258	1958.49
1023.548	1942.67
1023.839	1933.64
1024.129	1876.46
1024.419	1883.69
1024.709	1921.88
1025	1872.17
1025.29	1840.98
1025.58	1832.17
1025.87	1833.07
1026.16	1790.36
1026.449	1830.59
1026.739	1749.69
1027.029	1770.02
1027.319	1763.02
1027.608	1756.69
1027.898	1747.88
1028.187	1747.65
1028.477	1715.11
1028.766	1715.79
1029.055	1704.94
1029.344	1691.38
1029.634	1706.3
1029.923	1669.91
1030.212	1638.28
1030.501	1668.11
1030.79	1613.87
1031.078	1644.83
1031.367	1619.29
1031.656	1591.72
1031.945	1571.84
1032.233	1570.03
1032.522	1580.2
1032.81	1534.32
1033.099	1547.43
1033.387	1538.62
1033.675	1508.56
1033.963	1528.9
1034.251	1488
1034.54	1465.4
1034.828	1459.98
1035.116	1453.65
1035.403	1460.65
1035.691	1442.58
1035.979	1458.17
1036.267	1461.11
1036.554	1406.42
1036.842	1395.57
1037.129	1386.76
1037.417	1379.3
1037.704	1379.98
1037.992	1360.54
1038.279	1332.3
1038.566	1337.95
1038.853	1337.95
1039.14	1337.95
