Data from 583_FLMS001491_008.txt Node
Date: Thu Apr 19 15:43:33 BST 2018
User: hsy
Spectrometer: FLMS00149
Trigger mode: 0
Integration Time (sec): 1.000000E-2
Scans to average: 10
Electric dark correction enabled: true
Nonlinearity correction enabled: false
Boxcar width: 0
XAxis mode: Wavelengths
Number of Pixels in Spectrum: 2048
>>>>>Begin Spectral Data<<<<<
341.393	-12.41
341.776	-12.41
342.16	-12.41
342.543	-53.54
342.927	-45.18
343.31	-79.31
343.693	-75.24
344.077	-61.45
344.46	-52.87
344.843	-72.07
345.226	-37.72
345.61	-19.65
345.993	-21.91
346.376	-8.8
346.759	-4.96
347.142	21.03
347.525	52.89
347.908	68.26
348.291	68.71
348.674	106.9
349.057	116.17
349.44	108.71
349.823	140.12
350.206	175.6
350.588	227.58
350.971	239.56
351.354	287.46
351.737	270.06
352.119	289.72
352.502	314.13
352.884	326.56
353.267	312.77
353.65	330.17
354.032	328.37
354.414	351.19
354.797	347.58
355.179	350.97
355.562	368.82
355.944	375.82
356.326	376.05
356.709	373.11
357.091	364.52
357.473	364.75
357.855	360.91
358.238	378.54
358.62	393.45
359.002	385.99
359.384	375.6
359.766	405.65
360.148	371.08
360.53	365.65
360.912	378.76
361.294	376.5
361.676	400
362.057	366.78
362.439	393.68
362.821	360.68
363.203	359.55
363.584	383.28
363.966	378.31
364.348	379.44
364.729	378.08
365.111	364.52
365.493	363.85
365.874	362.94
366.256	359.33
366.637	362.49
367.019	379.44
367.4	380.34
367.781	373.11
368.163	374.69
368.544	376.5
368.925	358.87
369.306	375.37
369.688	361.13
370.069	371.08
370.45	391.19
370.831	387.35
371.212	374.24
371.593	367.91
371.974	357.07
372.355	389.16
372.736	376.5
373.117	394.81
373.498	381.25
373.879	373.11
374.26	361.81
374.641	388.93
375.021	362.04
375.402	387.57
375.783	397.07
376.163	395.71
376.544	394.81
376.925	385.77
377.305	416.5
377.686	389.83
378.066	412.21
378.447	422.6
378.827	401.36
379.208	400.91
379.588	404.52
379.968	383.96
380.349	401.36
380.729	426.67
381.109	436.16
381.489	410.17
381.87	416.05
382.25	424.64
382.63	414.47
383.01	435.26
383.39	430.96
383.77	437.06
384.15	422.6
384.53	438.19
384.91	442.04
385.29	432.55
385.67	449.27
386.049	456.95
386.429	452.21
386.809	451.3
387.189	453.11
387.568	464.18
387.948	459.21
388.328	446.78
388.707	453.79
389.087	471.87
389.466	470.28
389.846	481.13
390.225	484.3
390.605	479.32
390.984	481.13
391.363	503.73
391.743	479.55
392.122	516.61
392.501	508.48
392.881	500.34
393.26	475.48
393.639	498.98
394.018	520.45
394.397	522.49
394.776	508.25
395.155	515.48
395.534	531.75
395.913	524.07
396.292	527.23
396.671	524.29
397.05	550.06
397.429	525.65
397.808	568.13
398.186	535.37
398.565	531.75
398.944	554.12
399.323	549.6
399.701	544.18
400.08	559.77
400.458	567.91
400.837	558.42
401.215	562.71
401.594	547.8
401.972	576.27
402.351	587.34
402.729	566.78
403.107	598.64
403.486	586.21
403.864	594.57
404.242	592.09
404.62	581.24
404.999	593.67
405.377	587.8
405.755	610.39
406.133	624.63
406.511	610.39
406.889	635.7
407.267	642.26
407.645	637.06
408.023	645.19
408.401	644.29
408.779	658.3
409.156	674.12
409.534	676.83
409.912	685.87
410.29	678.19
410.667	697.17
411.045	701.92
411.422	687.23
411.8	680
412.178	703.05
412.555	713.89
412.933	724.06
413.31	734.91
413.687	751.86
414.065	744.63
414.442	723.38
414.819	770.62
415.197	735.81
415.574	773.33
415.951	764.74
416.328	773.33
416.705	781.69
417.082	767.9
417.46	789.6
417.837	812.65
418.214	786.89
418.591	796.83
418.967	816.26
419.344	805.64
419.721	820.33
420.098	832.99
420.475	848.58
420.852	832.99
421.228	871.18
421.605	871.18
421.982	858.3
422.358	848.58
422.735	853.1
423.111	880.67
423.488	876.15
423.864	896.94
424.241	884.06
424.617	926.09
424.994	905.53
425.37	891.29
425.746	933.32
426.123	927.67
426.499	942.36
426.875	940.55
427.251	965.41
427.627	982.36
428.003	964.51
428.379	972.19
428.756	984.85
429.132	993.89
429.507	1024.85
429.883	1042.25
430.259	1045.86
430.635	1042.7
431.011	1057.61
431.387	1089.03
431.763	1095.13
432.138	1097.39
432.514	1120.66
432.89	1134.22
433.265	1137.16
433.641	1138.52
434.016	1144.84
434.392	1146.2
434.767	1201.34
435.143	1165.63
435.518	1189.81
435.894	1185.29
436.269	1216.25
436.644	1205.41
437.02	1249.02
437.395	1244.28
437.77	1288.79
438.145	1266.42
438.52	1261.45
438.895	1291.96
439.271	1270.49
439.646	1317.72
440.021	1322.92
440.395	1321.11
440.77	1318.4
441.145	1331.28
441.52	1382.58
441.895	1365.63
442.27	1377.83
442.645	1367.66
443.019	1374.89
443.394	1346.42
443.769	1366.98
444.143	1364.27
444.518	1411.05
444.892	1398.62
445.267	1422.8
445.641	1420.09
446.016	1442.46
446.39	1450.6
446.764	1444.04
447.139	1469.35
447.513	1479.3
447.887	1466.87
448.262	1526.53
448.636	1481.56
449.01	1520.2
449.384	1532.4
449.758	1561.55
450.132	1559.07
450.506	1585.51
450.88	1549.35
451.254	1559.07
451.628	1592.97
452.002	1601.55
452.376	1631.38
452.75	1663.7
453.123	1652.4
453.497	1672.06
453.871	1689.46
454.244	1723.36
454.618	1757.48
454.992	1773.53
455.365	1780.53
455.739	1797.71
456.112	1836.12
456.486	1837.93
456.859	1880.64
457.232	1892.39
457.606	1888.33
457.979	1977.36
458.352	1955.22
458.725	1945.05
459.099	1998.15
459.472	2013.97
459.845	2054.42
460.218	2058.49
460.591	2113.86
460.964	2115.89
461.337	2128.09
461.71	2191.59
462.083	2201.09
462.456	2247.64
462.829	2219.16
463.201	2248.09
463.574	2275.43
463.947	2257.58
464.32	2314.3
464.692	2369.67
465.065	2357.69
465.438	2375.77
465.81	2436.79
466.183	2432.49
466.555	2496.67
466.928	2544.81
467.3	2523.34
467.672	2559.49
468.045	2593.39
468.417	2615.31
468.789	2596.56
469.161	2648.08
469.534	2718.13
469.906	2725.37
470.278	2789.77
470.65	2819.15
471.022	2857.34
471.394	2882.65
471.766	2935.76
472.138	2949.54
472.51	3016.21
472.882	3080.39
473.253	3082.19
473.625	3153.38
473.997	3195.64
474.369	3210.55
474.74	3239.48
475.112	3331.45
475.484	3368.97
475.855	3467.95
476.227	3502.97
476.598	3549.53
476.97	3590.43
477.341	3691.22
477.713	3750.2
478.084	3773.47
478.455	3852.79
478.827	3866.81
479.198	4021.15
479.569	4053.01
479.94	4123.75
480.311	4157.64
480.682	4295.27
481.053	4367.36
481.424	4459.78
481.795	4526.22
482.166	4603.73
482.537	4678.76
482.908	4754.92
483.279	4862.94
483.65	4959.66
484.021	5012.54
484.391	5121.46
484.762	5211.85
485.133	5284.39
485.503	5379.53
485.874	5514.9
486.244	5589.02
486.615	5741.56
486.985	5797.83
487.356	5949.24
487.726	6062.68
488.097	6202.11
488.467	6266.06
488.837	6438.71
489.207	6497.92
489.578	6710.12
489.948	6866.27
490.318	6950.79
490.688	7054.07
491.058	7201.63
491.428	7327.51
491.798	7426.94
492.168	7741.73
492.538	7796.87
492.908	7976.3
493.278	8087.71
493.648	8304.43
494.017	8376.97
494.387	8607.25
494.757	8667.36
495.126	8874.81
495.496	9004.07
495.866	9183.73
496.235	9438.64
496.605	9514.79
496.974	9740.32
497.344	9891.05
497.713	10020.77
498.082	10191.84
498.452	10497.37
498.821	10629.79
499.19	10723.8
499.559	10928.31
499.928	11215.54
500.298	11326.27
500.667	11631.12
501.036	11655.53
501.405	11877.44
501.774	12061.17
502.143	12354.72
502.512	12518.78
502.88	12842.61
503.249	12982.95
503.618	13233.11
503.987	13269.5
504.356	13605.76
504.724	13888.91
505.093	13969.59
505.462	14196.25
505.83	14423.36
506.199	14684.37
506.567	15023.57
506.936	15147.41
507.304	15444.58
507.672	15595.76
508.041	15910.56
508.409	16108.52
508.777	16349.41
509.145	16648.84
509.514	16735.62
509.882	16989.62
510.25	17181.03
510.618	17446.79
510.986	17585.09
511.354	17860.34
511.722	18124.51
512.09	18378.06
512.458	18402.69
512.826	18758.39
513.193	18889.91
513.561	19076.35
513.929	19275.67
514.297	19676.56
514.664	19796.33
515.032	20006.72
515.4	20182.08
515.767	20454.17
516.135	20563.32
516.502	20553.15
516.869	21120.14
517.237	21226.8
517.604	21113.81
517.972	21681.93
518.339	21764.19
518.706	21944.07
519.073	22015.03
519.44	22170.73
519.808	22541.57
520.175	22595.35
520.542	23017.26
520.909	23092.51
521.276	23238.05
521.643	23660.18
522.009	23687.75
522.376	24030.79
522.743	24189.66
523.11	24479.6
523.477	24682.08
523.843	24832.58
524.21	25116.42
524.577	25374.71
524.943	25452.23
525.31	25500.36
525.676	26044.75
526.043	26025.54
526.409	26308.47
526.776	26612.2
527.142	26724.74
527.508	26889.48
527.874	27201.56
528.241	27418.5
528.607	27466.86
528.973	27845.16
529.339	27800.87
529.705	28028.88
530.071	28280.85
530.437	28505.48
530.803	28679.71
531.169	28886.94
531.535	28908.18
531.901	29206.7
532.267	29215.07
532.632	29405.57
532.998	29482.63
533.364	29768.5
533.73	29756.29
534.095	30031.54
534.461	30164.19
534.826	30252.55
535.192	30330.06
535.557	30500.68
535.923	30564.18
536.288	30819.99
536.653	30861.35
537.019	30730.51
537.384	30911.74
537.749	31070.16
538.114	31109.25
538.479	31103.38
538.845	31301.34
539.21	31344.27
539.575	31446.42
539.94	31480.77
540.305	31646.64
540.67	31637.37
541.034	31739.07
541.399	31776.13
541.764	31932.28
542.129	31854.32
542.494	31964.15
542.858	32237.36
543.223	32087.08
543.587	32219.05
543.952	32210.92
544.316	32348.99
544.681	32255.89
545.045	32484.13
545.41	32654.97
545.774	32601.64
546.138	32627.4
546.503	32733.16
546.867	32798.02
547.231	32924.8
547.595	32954.63
547.959	33128.18
548.324	32923.89
548.688	33184.45
549.052	33230.1
549.416	33274.85
549.779	33235.98
550.143	33335.18
550.507	33516.87
550.871	33561.17
551.235	33504.22
551.599	33885.68
551.962	33880.48
552.326	33873.25
552.689	33947.37
553.053	33734.49
553.417	34002.28
553.78	34437.53
554.143	34287.02
554.507	34315.5
554.87	34373.57
555.234	34699.21
555.597	34521.59
555.96	34540.35
556.323	34812.66
556.686	34780.79
557.05	35084.06
557.413	35149.6
557.776	35238.41
558.139	35200.67
558.502	35321.35
558.865	35468.23
559.228	35641.56
559.59	35705.29
559.953	35738.96
560.316	36147.99
560.679	36066.18
561.041	36145.05
561.404	36406.06
561.767	36598.15
562.129	36510.01
562.492	36774.64
562.854	36768.99
563.217	36768.76
563.579	36795.88
563.941	37133.5
564.304	37213.5
564.666	37507.5
565.028	37471.12
565.39	37552.25
565.753	37811.22
566.115	37786.59
566.477	38096.64
566.839	38115.85
567.201	38467.03
567.563	38414.6
567.925	38732.1
568.287	38683.06
568.648	38804.19
569.01	38895.49
569.372	39156.95
569.734	39098.2
570.095	39321.24
570.457	39453.67
570.819	39516.26
571.18	39412.09
571.542	39788.35
571.903	39883.03
572.265	39902.69
572.626	40162.35
572.987	40138.62
573.349	40310.14
573.71	40377.26
574.071	40492.96
574.432	40722.33
574.794	40859.05
575.155	40773.41
575.516	40854.31
575.877	41014.75
576.238	40968.88
576.599	41217.91
576.96	41107.41
577.32	41193.73
577.681	41275.99
578.042	41434.4
578.403	41456.33
578.763	41439.38
579.124	41355.76
579.485	41760.5
579.845	41765.92
580.206	41680.5
580.566	41723.44
580.927	41635.3
581.287	41875.3
581.648	41753.27
582.008	41889.99
582.368	41884.11
582.728	41889.08
583.089	41874.85
583.449	41864.22
583.809	41943.09
584.169	41997.33
584.529	41737.9
584.889	42154.39
585.249	41852.7
585.609	41640.73
585.969	41997.33
586.329	41836.65
586.688	42000.94
587.048	41773.83
587.408	41843.43
587.768	41891.57
588.127	41811.12
588.487	41819.48
588.846	41867.84
589.206	41614.74
589.565	41659.03
589.925	41821.97
590.284	41625.36
590.643	41571.58
591.003	41665.59
591.362	41988.97
591.721	41849.99
592.08	41874.17
592.44	41915.07
592.799	41889.31
593.158	41902.64
593.517	41719.6
593.876	41840.04
594.235	41892.02
594.593	41915.3
594.952	41649.31
595.311	41812.7
595.67	41839.37
596.029	42065.12
596.387	41996.2
596.746	42100.38
597.104	41876.2
597.463	41723.66
597.822	41993.71
598.18	41910.1
598.538	41960.72
598.897	42188.74
599.255	41939.02
599.613	42249.75
599.972	42012.24
600.33	42042.07
600.688	42062.18
601.046	42134.95
601.404	42377.88
601.762	42187.38
602.12	42387.83
602.478	42358.22
602.836	42394.83
603.194	42135.18
603.552	42225.8
603.91	42281.39
604.268	42321.61
604.625	42202.07
604.983	42466.69
605.341	42316.64
605.698	42510.99
606.056	42752.79
606.413	42626.01
606.771	42810.87
607.128	42582.4
607.485	42527.48
607.843	42729.96
608.2	42803.41
608.557	43136.51
608.914	43091.08
609.272	43101.25
609.629	43226.9
609.986	43333.79
610.343	43157.52
610.7	43541.92
611.057	43377.4
611.414	43495.82
611.771	43546.89
612.127	43560.68
612.484	43566.55
612.841	43607.91
613.198	43575.37
613.554	43601.35
613.911	43830.73
614.267	43981.91
614.624	43808.81
614.98	43863.27
615.337	44215.8
615.693	44126.31
616.05	44190.94
616.406	44442.91
616.762	44112.3
617.118	44298.96
617.475	44199.98
617.831	44372.63
618.187	44476.81
618.543	44579.18
618.899	44668.44
619.255	44602.46
619.611	44607.2
619.967	44741.66
620.323	44798.61
620.678	44649.69
621.034	44593.87
621.39	44696.24
621.746	44750.93
622.101	45157.92
622.457	44751.83
622.812	44985.95
623.168	45052.16
623.523	45138.49
623.879	45125.16
624.234	44963.58
624.589	45097.13
624.945	45143.69
625.3	45092.84
625.655	45159.5
626.01	45166.51
626.365	45153.18
626.72	45077.02
627.075	44930.81
627.43	44987.76
627.785	44997.25
628.14	45044.71
628.495	45059.17
628.85	45124.25
629.205	44978.04
629.559	45121.54
629.914	45056
630.269	44955.22
630.623	44736.01
630.978	44738.27
631.332	44865.5
631.687	45033.41
632.041	44839.97
632.396	44873.18
632.75	44751.83
633.104	44839.97
633.459	44611.72
633.813	44622.8
634.167	44528.33
634.521	44597.49
634.875	44553.64
635.229	44517.71
635.583	44310.04
635.937	44346.87
636.291	44295.35
636.645	44307.55
636.999	44147.78
637.352	44265.06
637.706	44077.5
638.06	44102.58
638.413	44106.43
638.767	43825.3
639.121	43782.14
639.474	43835.7
639.828	43867.34
640.181	43714.57
640.534	43895.81
640.888	43689.71
641.241	43460.79
641.594	43626.66
641.947	43621.24
642.301	43556.16
642.654	43474.58
643.007	43480.23
643.36	43665.76
643.713	43546.21
644.066	43449.72
644.419	43308.03
644.771	42753.47
645.124	42497.88
645.477	42371.33
645.83	42234.84
646.182	42325.68
646.535	42270.54
646.888	42336.08
647.24	42145.8
647.593	42458.56
647.945	42235.51
648.298	42142.18
648.65	42020.15
649.002	41735.19
649.355	41626.72
649.707	41480.28
650.059	41485.93
650.411	42032.58
650.763	42274.61
651.115	42974.03
651.467	42816.74
651.819	42805.44
652.171	42585.79
652.523	42676.41
652.875	42750.98
653.227	42642.73
653.578	42866.91
653.93	42709.85
654.282	42524.09
654.633	42381.27
654.985	42620.36
655.337	42605.45
655.688	42598.44
656.039	42645.67
656.391	42357.32
656.742	42492
657.094	42485.9
657.445	42592.57
657.796	42592.57
658.147	42414.72
658.498	42563.64
658.849	42609.74
659.2	42496.98
659.551	42441.16
659.902	42757.31
660.253	42506.24
660.604	42606.13
660.955	42392.12
661.306	42572.68
661.656	42455.39
662.007	42424.44
662.358	42481.38
662.708	42602.28
663.059	42456.3
663.409	42422.18
663.76	42560.7
664.11	42502.4
664.461	42770.64
664.811	42684.77
665.161	42639.12
665.511	42460.59
665.862	42696.07
666.212	42668.72
666.562	42649.29
666.912	42664.66
667.262	42504.66
667.612	42529.74
667.962	42594.83
668.312	42492.46
668.662	42732.9
669.011	42652
669.361	42714.6
669.711	42580.36
670.06	42638.44
670.41	42513.7
670.76	42317.32
671.109	42651.55
671.459	42620.81
671.808	42489.74
672.157	42549.4
672.507	42329.52
672.856	42275.29
673.205	42598.22
673.554	42395.28
673.904	42326.36
674.253	42600.7
674.602	42423.53
674.951	41894.51
675.3	41631.24
675.649	42338.11
675.998	42271.45
676.346	42275.74
676.695	42343.08
677.044	42000.04
677.393	42224.67
677.741	42299.92
678.09	42064.22
678.438	41945.58
678.787	42065.35
679.135	42037.78
679.484	41761.4
679.832	42031
680.181	41826.48
680.529	41828.29
680.877	41622.87
681.225	41622.65
681.573	41692.93
681.922	41601.86
682.27	41393.05
682.618	41605.02
682.966	41489.54
683.314	41399.15
683.661	41270.34
684.009	41059.27
684.357	41043
684.705	40933.85
685.053	41044.36
685.4	40856.12
685.748	40817.02
686.095	40642.34
686.443	40516.01
686.79	40351.72
687.138	40470.14
687.485	40464.94
687.832	40415.45
688.18	40296.81
688.527	40171.16
688.874	39956.03
689.221	40006.42
689.568	39885.29
689.915	39695.69
690.262	39738.4
690.609	39576.6
690.956	39501.57
691.303	39476.72
691.65	39315.14
691.997	39217.97
692.344	39009.84
692.69	38953.57
693.037	38937.97
693.383	38511.32
693.73	38752.22
694.077	38367.14
694.423	38349.97
694.769	38155.4
695.116	38174.83
695.462	37993.14
695.808	37897.1
696.155	37971.9
696.501	37651.23
696.847	37576.65
697.193	37335.3
697.539	37307.96
697.885	37047.18
698.231	36924.24
698.577	36914.52
698.923	36944.58
699.269	36673.63
699.614	36533.97
699.96	36372.84
700.306	36421.66
700.651	36255.56
700.997	36001.78
701.342	35897.15
701.688	35910.03
702.033	35698.51
702.379	35786.87
702.724	35569.02
703.069	35624.16
703.415	35201.12
703.76	35074.8
704.105	35282.02
704.45	35054.01
704.795	34871.19
705.14	34721.59
705.485	34753.22
705.83	34472.55
706.175	34548.03
706.52	34428.94
706.865	34250.64
707.209	34129.74
707.554	34079.12
707.899	34063.07
708.243	33847.26
708.588	33888.39
708.932	33685.23
709.277	33673.03
709.621	33482.07
709.966	33260.16
710.31	33315.52
710.654	33173.61
710.998	33305.81
711.342	33282.53
711.687	33166.6
712.031	33018.13
712.375	33062.87
712.719	32851.58
713.063	32931.8
713.407	32866.95
713.75	32595.77
714.094	32709.44
714.438	32615.2
714.782	32521.42
715.125	32363
715.469	32583.11
715.812	32292.5
716.156	32314.64
716.499	32349.45
716.843	32256.57
717.186	32014.99
717.53	32237.13
717.873	32249.56
718.216	32147.64
718.559	31975.22
718.902	31705.4
719.246	31907.2
719.589	31718.28
719.932	31646.64
720.275	31692.74
720.617	31637.15
720.96	31458.4
721.303	31575.23
721.646	31692.74
721.989	31577.94
722.331	31570.94
722.674	31509.92
723.016	31483.48
723.359	31224.28
723.701	31259.31
724.044	31358.74
724.386	31275.35
724.729	31325.74
725.071	31242.36
725.413	31275.35
725.755	31110.83
726.097	31098.18
726.439	31000.78
726.782	31062.25
727.124	31132.98
727.465	31135.47
727.807	30973.89
728.149	31058.41
728.491	30967.11
728.833	31053.21
729.175	31001.23
729.516	30868.58
729.858	30942.7
730.199	31063.83
730.541	30955.58
730.882	30896.38
731.224	30993.32
731.565	30825.42
731.906	30766.21
732.248	30899.09
732.589	30760.11
732.93	30768.92
733.271	30932.76
733.612	30848.02
733.953	30959.88
734.294	30952.65
734.635	30885.98
734.976	30935.25
735.317	30753.33
735.658	30760.34
735.999	30732.54
736.339	30815.7
736.68	30831.97
737.021	30851.63
737.361	30646.21
737.702	30978.86
738.042	30852.76
738.383	30977.96
738.723	31023.83
739.063	30839.88
739.404	30950.16
739.744	30976.6
740.084	31018.63
740.424	31076.71
740.764	30926.43
741.104	31215.69
741.444	30978.86
741.784	31035.58
742.124	31234.9
742.464	31107.22
742.804	31116.94
743.143	31205.97
743.483	31236.93
743.823	31155.35
744.162	31341.34
744.502	31401.45
744.841	31275.58
745.181	31537.26
745.52	31430.83
745.86	31502.46
746.199	31503.14
746.538	31654.55
746.877	31839.4
747.216	31794.66
747.556	31690.71
747.895	31872.62
748.234	31930.02
748.573	32020.87
748.911	31951.49
749.25	32104.25
749.589	32007.99
749.928	32136.12
750.267	32267.19
750.605	32319.62
750.944	32282.1
751.283	32393.74
751.621	32575.2
751.96	32439.84
752.298	32520.29
752.636	32717.57
752.975	32633.28
753.313	32635.99
753.651	32895.19
753.989	32753.05
754.327	32961.63
754.666	32603.9
755.004	33045.47
755.342	33051.57
755.679	33087.73
756.017	33088.18
756.355	33261.74
756.693	33144.23
757.031	33547.38
757.368	33168.63
757.706	33265.35
758.044	33367.5
758.381	33475.74
758.719	33356.88
759.056	33369.76
759.394	33509.19
759.731	33322.53
760.068	33278.69
760.405	33570.2
760.743	33416.99
761.08	33492.47
761.417	33483.88
761.754	33542.41
762.091	33466.48
762.428	33483.43
762.765	33439.13
763.102	33467.83
763.438	33489.08
763.775	33211.8
764.112	33407.05
764.449	33418.34
764.785	33321.62
765.122	33286.82
765.458	33226.26
765.795	33389.64
766.131	33304.22
766.467	33296.31
766.804	32948.75
767.14	32943.78
767.476	33063.33
767.812	32904.91
768.148	33005.25
768.485	32941.52
768.821	32775.65
769.157	32741.98
769.492	32704.46
769.828	32670.79
770.164	32388.99
770.5	32231.93
770.836	32509.22
771.171	32293.4
771.507	32202.33
771.842	32135.89
772.178	32198.04
772.513	32107.64
772.849	31961.21
773.184	31821.32
773.519	31760.31
773.855	31674.66
774.19	31628.79
774.525	31583.14
774.86	31462.92
775.195	31471.73
775.53	31257.05
775.865	31210.27
776.2	31015.7
776.535	30886.21
776.87	30928.24
777.205	30700.68
777.539	30598.08
777.874	30882.14
778.209	30587.91
778.543	30390.4
778.878	30212.78
779.212	30241.03
779.547	30148.37
779.881	30177.07
780.215	29863.86
780.55	29994.03
780.884	29665.45
781.218	29601.95
781.552	29722.17
781.886	29502.06
782.22	29307.04
782.554	29293.03
782.888	28963.55
783.222	28940.27
783.556	28835.87
783.889	28797.22
784.223	28607.62
784.557	28624.35
784.89	28657.11
785.224	28468.42
785.557	28191.59
785.891	28173.51
786.224	28164.7
786.558	28184.36
786.891	28062.78
787.224	27831.6
787.557	27680.42
787.891	27750.47
788.224	27589.35
788.557	27599.51
788.89	27405.17
789.223	27391.61
789.556	27191.84
789.888	27253.76
790.221	27096.93
790.554	27037.72
790.887	26953.66
791.219	26808.35
791.552	26765.41
791.884	26600.9
792.217	26665.08
792.549	26494.23
792.882	26258.53
793.214	26168.37
793.546	26153.45
793.879	26136.73
794.211	25883.63
794.543	26002.04
794.875	25884.98
795.207	25919.33
795.539	25739.9
795.871	25761.6
796.203	25593.92
796.535	25440.48
796.867	25485.9
797.198	25261.27
797.53	25338.1
797.862	25005.01
798.193	25097.66
798.525	24922.97
798.856	25140.82
799.188	24696.99
799.519	24699.93
799.85	24645.69
800.182	24622.42
800.513	24594.17
800.844	24340.17
801.175	24486.83
801.506	24416.1
801.837	24295.87
802.168	24196.89
802.499	24259.26
802.83	24043.22
803.161	24050.91
803.491	24021.98
803.822	23966.62
804.153	23731.82
804.483	23713.74
804.814	23529.56
805.145	23687.07
805.475	23688.88
805.805	23486.18
806.136	23547.19
806.466	23359.17
806.796	23273.3
807.126	23203.7
807.457	23171.83
807.787	23164.15
808.117	23079.18
808.447	23024.95
808.777	23078.28
809.107	22915.12
809.436	22801.9
809.766	22922.8
810.096	22819.75
810.426	22699.98
810.755	22753.77
811.085	22661.34
811.414	22725.74
811.744	22500.67
812.073	22532.75
812.403	22321.69
812.732	22306.77
813.061	22494.79
813.39	22207.57
813.719	22090.96
814.049	22258.41
814.378	22144.52
814.707	21904.3
815.036	21934.13
815.365	21837.41
815.693	21736.84
816.022	21826.78
816.351	21719.67
816.68	21653.46
817.008	21691.2
817.337	21471.09
817.665	21419.34
817.994	21556.51
818.322	21472.67
818.651	21419.56
818.979	21349.06
819.307	21447.36
819.636	21429.06
819.964	21339.11
820.292	21318.32
820.62	21314.93
820.948	21331.66
821.276	21471.09
821.604	21239
821.932	21392.9
822.259	21224.99
822.587	21254.37
822.915	21149.06
823.243	21245.78
823.57	21191.1
823.898	21220.47
824.225	21181.83
824.553	21222.96
824.88	21212.56
825.207	21218.89
825.535	21088.05
825.862	21287.36
826.189	21125.79
826.516	21217.08
826.843	21251.88
827.17	21269.51
827.497	21329.4
827.824	21252.56
828.151	21217.76
828.478	21130.31
828.805	21338.66
829.131	21182.96
829.458	21127.37
829.785	21111.78
830.111	21165.79
830.438	21334.59
830.764	21273.58
831.09	21297.53
831.417	21000.37
831.743	21289.62
832.069	21239
832.395	21163.75
832.722	21159.91
833.048	21082.62
833.374	21193.58
833.7	21012.57
834.026	21050.53
834.351	21161.04
834.677	21181.15
835.003	21051.44
835.329	20984.1
835.654	21013.92
835.98	20942.06
836.306	21016.41
836.631	20970.08
836.956	21071.1
837.282	21013.7
837.607	20849.86
837.932	20936.86
838.258	20830.43
838.583	20852.12
838.908	20764.44
839.233	20735.51
839.558	20607.16
839.883	20758.34
840.208	20576.65
840.533	20685.12
840.858	20641.73
841.182	20469.08
841.507	20641.73
841.832	20459.59
842.156	20508.85
842.481	20448.52
842.805	20404.9
843.13	20314.51
843.454	20295.3
843.778	20281.06
844.103	20094.63
844.427	20051.01
844.751	20116.55
845.075	20157.22
845.399	20048.98
845.723	19917.68
846.047	19835.65
846.371	19674.53
846.695	19732.83
847.019	19707.29
847.343	19485.38
847.666	19419.84
847.99	19390.24
848.313	19284.03
848.637	19296.23
848.96	19175.1
849.284	19246.51
849.607	19032.96
849.931	19022.79
850.254	18967.65
850.577	18795
850.9	18638.17
851.223	18704.83
851.546	18594.55
851.869	18534.22
852.192	18662.35
852.515	18381.23
852.838	18291.06
853.161	18240.66
853.483	18195.02
853.806	18234.11
854.129	18212.87
854.451	18110.95
854.774	17968.58
855.096	18050.84
855.419	17769.72
855.741	17811.3
856.063	17728.36
856.385	17677.74
856.708	17522.49
857.03	17575.6
857.352	17597.74
857.674	17577.63
857.996	17351.87
858.318	17375.15
858.64	17395.04
858.961	17235.27
859.283	17239.33
859.605	17101.94
859.926	17154.82
860.248	17072.11
860.57	17092.45
860.891	17019.23
861.212	16942.62
861.534	16907.14
861.855	16839.12
862.176	16850.42
862.498	16884.99
862.819	16807.26
863.14	16769.52
863.461	16770.42
863.782	16609.29
864.103	16704.66
864.424	16515.74
864.745	16657.2
865.065	16480.03
865.386	16471.67
865.707	16594.38
866.027	16525.68
866.348	16503.31
866.668	16409.75
866.989	16385.12
867.309	16306.93
867.63	16275.74
867.95	16445.68
868.27	16266.93
868.59	16263.99
868.91	16170.21
869.23	16190.77
869.55	16141.51
869.87	16231.68
870.19	16067.84
870.51	16059.03
870.83	16069.2
871.15	16007.95
871.469	16081.17
871.789	16073.72
872.109	15941.74
872.428	15925.7
872.748	15919.14
873.067	15885.7
873.386	15935.41
873.706	15804.12
874.025	15830.11
874.344	15713.73
874.663	15776.1
874.982	15698.13
875.301	15666.27
875.62	15670.56
875.939	15625.59
876.258	15677.57
876.577	15523.67
876.896	15551.24
877.214	15560.73
877.533	15541.07
877.852	15503.56
878.17	15453.39
878.489	15520.06
878.807	15454.97
879.125	15377.46
879.444	15363.23
879.762	15345.15
880.08	15355.09
880.398	15297.01
880.716	15211.59
881.034	15264.25
881.352	15221.08
881.67	15144.47
881.988	15072.16
882.306	15030.13
882.624	15027.19
882.941	14972.95
883.259	14993.52
883.577	14923.01
883.894	14893.41
884.212	14906.97
884.529	14882.11
884.846	14754.65
885.164	14807.99
885.481	14715.79
885.798	14743.36
886.115	14590.36
886.432	14692.96
886.75	14671.72
887.067	14661.1
887.383	14454.1
887.7	14569.35
888.017	14456.58
888.334	14515.34
888.651	14392.63
888.967	14417.71
889.284	14255.23
889.6	14266.98
889.917	14130.94
890.233	14271.73
890.55	14222.24
890.866	14210.26
891.182	14039.19
891.498	14141.79
891.815	13983.38
892.131	13892.98
892.447	13996.48
892.763	13881.23
893.079	13813.66
893.395	13866.54
893.71	13859.31
894.026	13786.54
894.342	13701.57
894.657	13590.84
894.973	13575.48
895.289	13628.81
895.604	13560.34
895.92	13458.64
896.235	13490.05
896.55	13425.2
896.865	13421.36
897.181	13327.8
897.496	13334.8
897.811	13207.12
898.126	13233.79
898.441	13150.4
898.756	13205.54
899.071	13095.49
899.386	13159.22
899.7	12995.83
900.015	12964.42
900.33	12858.21
900.644	12797.64
900.959	12794.25
901.273	12770.3
901.588	12691.66
901.902	12704.76
902.216	12636.07
902.531	12587.48
902.845	12503.87
903.159	12458.44
903.473	12468.39
903.787	12328.96
904.101	12372.12
904.415	12329.63
904.729	12255.96
905.042	12182.74
905.356	12083.31
905.67	12133.71
905.984	12162.41
906.297	12054.61
906.611	11932.36
906.924	11988.85
907.237	11959.93
907.551	11854.84
907.864	11831.34
908.177	11839.02
908.491	11712.93
908.804	11655.75
909.117	11588.41
909.43	11481.97
909.743	11411.47
910.056	11543.67
910.368	11449.88
910.681	11397.68
910.994	11378.7
911.307	11258.93
911.619	11207.63
911.932	11295.54
912.244	11088.08
912.557	11086.05
912.869	11026.62
913.181	11030.91
913.494	10974.41
913.806	10986.39
914.118	10879.05
914.43	10839.28
914.742	10756.57
915.054	10783.23
915.366	10707.08
915.678	10692.84
915.99	10612.39
916.302	10519.96
916.613	10542.79
916.925	10500.08
917.236	10481.55
917.548	10397.25
917.859	10400.19
918.171	10274.77
918.482	10258.05
918.794	10315.22
919.105	10234.77
919.416	10163.81
919.727	10088.34
920.038	10062.35
920.349	10009.69
920.66	10007.43
920.971	9936.93
921.282	9977.6
921.593	9852.64
921.903	9764.73
922.214	9764.5
922.525	9697.39
922.835	9692.41
923.146	9623.72
923.456	9552.76
923.767	9557.95
924.077	9474.57
924.387	9479.99
924.697	9439.31
925.008	9369.03
925.318	9357.96
925.628	9343.5
925.938	9307.11
926.248	9221.69
926.558	9090.85
926.867	9182.37
927.177	9087.68
927.487	9070.96
927.796	9087.91
928.106	9042.49
928.416	8964.98
928.725	8976.05
929.034	8845.21
929.344	8808.14
929.653	8837.75
929.962	8724.53
930.271	8708.03
930.581	8724.98
930.89	8648.83
931.199	8637.98
931.508	8576.29
931.817	8597.53
932.125	8465.33
932.434	8439.57
932.743	8381.26
933.051	8386.46
933.36	8355.05
933.669	8324.32
933.977	8261.27
934.286	8318.44
934.594	8254.71
934.902	8163.87
935.21	8229.18
935.519	8126.58
935.827	8097.65
936.135	8054.04
936.443	8011.55
936.751	7925.23
937.059	7964.32
937.367	7876.19
937.674	7915.51
937.982	7893.59
938.29	7783.76
938.597	7796.65
938.905	7699.7
939.213	7687.27
939.52	7633.49
939.827	7692.69
940.135	7624.22
940.442	7535.64
940.749	7554.62
941.056	7615.63
941.363	7431.23
941.67	7432.81
941.977	7395.75
942.284	7373.15
942.591	7377.67
942.898	7370.44
943.205	7297.68
943.511	7238.47
943.818	7239.82
944.125	7180.62
944.431	7153.5
944.738	7090.68
945.044	7099.71
945.35	7050.68
945.657	6959.38
945.963	7026.5
946.269	6965.25
946.575	6913.96
946.881	6848.42
947.187	6837.57
947.493	6824.92
947.799	6819.72
948.105	6794.86
948.41	6745.37
948.716	6745.83
949.022	6692.49
949.327	6709.44
949.633	6569.33
949.938	6598.26
950.244	6637.13
950.549	6505.15
950.854	6465.83
951.16	6471.26
951.465	6482.1
951.77	6435.1
952.075	6352.62
952.38	6372.05
952.685	6379.96
952.99	6325.72
953.294	6282.11
953.599	6334.76
953.904	6189
954.209	6173.86
954.513	6197.59
954.818	6206.18
955.122	6159.85
955.426	6139.74
955.731	6117.59
956.035	6014.09
956.339	6044.83
956.643	6016.35
956.948	5884.15
957.252	5964.6
957.556	5962.8
957.86	5864.72
958.163	5913.98
958.467	5826.3
958.771	5860.43
959.075	5828.34
959.378	5767.09
959.682	5730.71
959.985	5671.28
960.289	5730.03
960.592	5695.46
960.896	5671.96
961.199	5608.68
961.502	5672.63
961.805	5615.69
962.108	5578.17
962.411	5560.09
962.714	5497.95
963.017	5494.11
963.32	5493.65
963.623	5412.98
963.926	5433.77
964.228	5408.46
964.531	5350.38
964.833	5400.55
965.136	5327.33
965.438	5264.28
965.741	5259.31
966.043	5244.62
966.345	5219.76
966.648	5194.68
966.95	5159.2
967.252	5200.78
967.554	5122.82
967.856	5103.38
968.158	5075.81
968.46	5064.51
968.761	5043.27
969.063	5010.05
969.365	4941.13
969.666	4981.58
969.968	4943.61
970.269	4883.5
970.571	4911.3
970.872	4895.03
971.174	4850.73
971.475	4822.71
971.776	4847.12
972.077	4801.92
972.378	4816.38
972.679	4749.27
972.98	4713.79
973.281	4704.07
973.582	4666.11
973.883	4658.42
974.183	4629.95
974.484	4636.95
974.785	4615.71
975.085	4593.34
975.386	4564.41
975.686	4544.75
975.986	4539.56
976.287	4513.12
976.587	4446.9
976.887	4476.51
977.187	4471.99
977.487	4423.63
977.787	4387.47
978.087	4380.01
978.387	4380.92
978.687	4377.75
978.987	4304.53
979.286	4297.08
979.586	4289.17
979.885	4329.62
980.185	4273.35
980.484	4216.63
980.784	4220.47
981.083	4188.15
981.382	4208.04
981.682	4171.2
981.981	4129.85
982.28	4138.66
982.579	4107.48
982.878	4079.68
983.177	4072.9
983.475	4095.5
983.774	4024.32
984.073	4001.49
984.372	4006.69
984.67	3956.29
984.969	3974.82
985.267	3921.04
985.566	3971.89
985.864	3935.5
986.162	3863.87
986.461	3853.25
986.759	3813.47
987.057	3810.31
987.355	3793.59
987.653	3792.23
987.951	3768.05
988.249	3770.76
988.547	3757.66
988.844	3726.24
989.142	3683.08
989.44	3718.79
989.737	3703.65
990.035	3670.65
990.332	3610.54
990.63	3615.29
990.927	3634.04
991.224	3590.2
991.521	3589.98
991.819	3544.1
992.116	3539.13
992.413	3511.79
992.71	3502.97
993.006	3472.69
993.303	3495.06
993.6	3470.88
993.897	3460.71
994.193	3406.93
994.49	3409.42
994.787	3379.13
995.083	3353.37
995.379	3361.06
995.676	3340.04
995.972	3320.6
996.268	3326.48
996.565	3271.57
996.861	3241.28
997.157	3251.68
997.453	3230.66
997.749	3181.85
998.044	3200.38
998.34	3189.08
998.636	3195.41
998.932	3146.15
999.227	3112.25
999.523	3135.3
999.818	3112.7
1000.114	3084.68
1000.409	3059.59
1000.704	3046.26
1001	3022.31
1001.295	3023.44
1001.59	2967.39
1001.885	2967.17
1002.18	2962.87
1002.475	2979.14
1002.77	2939.82
1003.065	2917.68
1003.359	2903.21
1003.654	2911.8
1003.949	2849.88
1004.243	2833.16
1004.538	2836.32
1004.832	2816.21
1005.127	2804.46
1005.421	2780.05
1005.715	2774.18
1006.009	2803.56
1006.304	2721.3
1006.598	2730.79
1006.892	2726.5
1007.186	2709.1
1007.48	2679.27
1007.773	2651.7
1008.067	2660.51
1008.361	2625.93
1008.655	2610.11
1008.948	2606.95
1009.242	2595.88
1009.535	2575.31
1009.829	2572.6
1010.122	2529.67
1010.415	2513.85
1010.708	2502.1
1011.001	2468.65
1011.295	2464.81
1011.588	2467.07
1011.881	2422.32
1012.173	2417.13
1012.466	2435.66
1012.759	2394.08
1013.052	2395.43
1013.344	2388.43
1013.637	2347.07
1013.93	2357.01
1014.222	2320.63
1014.514	2336.9
1014.807	2310.46
1015.099	2300.07
1015.391	2302.1
1015.683	2238.37
1015.976	2251.71
1016.268	2234.53
1016.56	2237.02
1016.851	2197.92
1017.143	2183.01
1017.435	2178.04
1017.727	2154.31
1018.018	2137.13
1018.31	2127.19
1018.602	2128.09
1018.893	2103.24
1019.185	2091.03
1019.476	2074.08
1019.767	2053.07
1020.058	2059.62
1020.35	2024.82
1020.641	2020.75
1020.932	1996.57
1021.223	1978.27
1021.514	1976.69
1021.804	1984.59
1022.095	1932.39
1022.386	1938.95
1022.677	1931.04
1022.967	1909.12
1023.258	1918.16
1023.548	1879.29
1023.839	1858.72
1024.129	1869.57
1024.419	1852.85
1024.709	1827.99
1025	1822.79
1025.29	1806.97
1025.58	1807.88
1025.87	1782.34
1026.16	1770.82
1026.449	1777.37
1026.739	1765.39
1027.029	1743.02
1027.319	1709.12
1027.608	1692.62
1027.898	1684.26
1028.187	1701.44
1028.477	1710.48
1028.766	1681.1
1029.055	1679.29
1029.344	1653.08
1029.634	1622.12
1029.923	1606.07
1030.212	1623.7
1030.501	1626.41
1030.79	1587.54
1031.078	1590.03
1031.367	1557.71
1031.656	1550.93
1031.945	1539.63
1032.233	1526.08
1032.522	1547.09
1032.81	1501.22
1033.099	1482.69
1033.387	1485.4
1033.675	1474.78
1033.963	1484.27
1034.251	1453.54
1034.54	1465.29
1034.828	1455.57
1035.116	1447.66
1035.403	1447.21
1035.691	1402.92
1035.979	1413.54
1036.267	1413.31
1036.554	1382.58
1036.842	1359.3
1037.129	1361.33
1037.417	1326.76
1037.704	1334.67
1037.992	1343.71
1038.279	1296.93
1038.566	1312.07
1038.853	1312.07
1039.14	1312.07
