Data from 583_FLMS001491_009.txt Node
Date: Thu Apr 19 15:43:36 BST 2018
User: hsy
Spectrometer: FLMS00149
Trigger mode: 0
Integration Time (sec): 1.000000E-2
Scans to average: 10
Electric dark correction enabled: true
Nonlinearity correction enabled: false
Boxcar width: 0
XAxis mode: Wavelengths
Number of Pixels in Spectrum: 2048
>>>>>Begin Spectral Data<<<<<
341.393	-11.16
341.776	-11.16
342.16	-11.16
342.543	-47.99
342.927	-54.55
343.31	-41.67
343.693	-66.52
344.077	-64.49
344.46	-57.03
344.843	-57.71
345.226	-46.41
345.61	-38.73
345.993	-26.98
346.376	-11.84
346.759	15.28
347.142	33.13
347.525	43.98
347.908	60.7
348.291	72.23
348.674	85.34
349.057	100.7
349.44	146.13
349.823	145.22
350.206	183.87
350.588	220.93
350.971	237.2
351.354	271.09
351.737	286.69
352.119	288.95
352.502	303.86
352.884	313.35
353.267	316.29
353.65	350.41
354.032	330.3
354.414	329.17
354.797	336.18
355.179	334.82
355.562	355.39
355.944	346.57
356.326	352
356.709	375.95
357.091	380.02
357.473	394.03
357.855	370.53
358.238	374.59
358.62	388.83
359.002	376.85
359.384	384.99
359.766	374.37
360.148	382.73
360.53	381.37
360.912	387.25
361.294	384.31
361.676	383.18
362.057	367.14
362.439	385.89
362.821	359.23
363.203	368.72
363.584	378.89
363.966	365.78
364.348	363.07
364.729	366.69
365.111	369.17
365.493	351.77
365.874	354.03
366.256	333.69
366.637	349.96
367.019	361.04
367.4	348.15
367.781	367.14
368.163	374.82
368.544	354.03
368.925	362.62
369.306	353.8
369.688	380.47
370.069	362.17
370.45	361.94
370.831	366.01
371.212	363.97
371.593	362.39
371.974	386.8
372.355	360.13
372.736	380.47
373.117	364.88
373.498	383.18
373.879	374.82
374.26	390.64
374.641	344.76
375.021	369.85
375.402	388.61
375.783	374.37
376.163	403.29
376.544	424.31
376.925	411.43
377.305	388.38
377.686	405.78
378.066	368.27
378.447	417.31
378.827	394.26
379.208	409.17
379.588	423.18
379.968	383.41
380.349	410.53
380.729	408.04
381.109	422.28
381.489	423.41
381.87	429.51
382.25	403.52
382.63	404.65
383.01	397.42
383.39	411.88
383.77	404.42
384.15	432.9
384.53	442.62
384.91	453.01
385.29	432.67
385.67	434.93
386.049	417.31
386.429	432.9
386.809	459.34
387.189	446.01
387.568	447.36
387.948	442.62
388.328	436.29
388.707	450.3
389.087	454.59
389.466	481.94
389.846	461.82
390.225	467.25
390.605	465.89
390.984	476.74
391.363	459.79
391.743	499.79
392.122	479.45
392.501	477.64
392.881	455.27
393.26	492.56
393.639	502.5
394.018	488.72
394.397	513.12
394.776	513.8
395.155	524.87
395.534	501.15
395.913	503.63
396.292	504.53
396.671	521.48
397.05	546.79
397.429	521.48
397.808	515.38
398.186	553.57
398.565	530.75
398.944	527.36
399.323	542.5
399.701	522.84
400.08	544.31
400.458	536.62
400.837	534.14
401.215	544.53
401.594	564.19
401.972	564.19
402.351	561.93
402.729	568.94
403.107	561.93
403.486	571.88
403.864	557.19
404.242	579.79
404.62	595.38
404.999	584.08
405.377	596.51
405.755	604.65
406.133	607.36
406.511	624.31
406.889	613.23
407.267	632.22
407.645	641.71
408.023	610.07
408.401	637.19
408.779	642.84
409.156	650.07
409.534	661.59
409.912	661.82
410.29	675.15
410.667	667.92
411.045	661.59
411.422	694.81
411.8	689.84
412.178	726
412.555	714.47
412.933	717.86
413.31	705.89
413.687	729.16
414.065	751.53
414.442	738.88
414.819	741.14
415.197	765.77
415.574	770.74
415.951	766.45
416.328	773.45
416.705	777.97
417.082	766
417.46	784.98
417.837	770.29
418.214	804.64
418.591	793.11
418.967	791.98
419.344	808.48
419.721	814.81
420.098	813
420.475	798.99
420.852	829.72
421.228	832.21
421.605	831.98
421.982	860.46
422.358	834.7
422.735	847.12
423.111	883.06
423.488	860.91
423.864	900.68
424.241	874.24
424.617	895.03
424.994	933.45
425.37	890.06
425.746	913.79
426.123	936.16
426.499	919.21
426.875	912.66
427.251	942.04
427.627	968.93
428.003	964.64
428.379	976.16
428.756	985.88
429.132	1001.24
429.507	1021.81
429.883	994.47
430.259	1027.01
430.635	1043.5
431.011	1036.72
431.387	1078.98
431.763	1086.21
432.138	1080.11
432.514	1101.36
432.89	1061.13
433.265	1105.42
433.641	1131.86
434.016	1144.29
434.392	1167.12
434.767	1147
435.143	1150.62
435.518	1167.12
435.894	1157.62
436.269	1202.37
436.644	1216.61
437.02	1239.66
437.395	1205.08
437.77	1275.59
438.145	1254.35
438.52	1290.5
438.895	1258.87
439.271	1267.68
439.646	1282.37
440.021	1305.19
440.395	1314.46
440.77	1303.84
441.145	1326.43
441.52	1358.3
441.895	1369.82
442.27	1356.04
442.645	1349.48
443.019	1367.56
443.394	1366.88
443.769	1369.14
444.143	1365.3
444.518	1413.66
444.892	1386.55
445.267	1400.56
445.641	1413.89
446.016	1423.61
446.39	1426.77
446.764	1421.12
447.139	1445.53
447.513	1460.22
447.887	1462.25
448.262	1451.18
448.636	1474.68
449.01	1495.92
449.384	1511.51
449.758	1508.8
450.132	1538.18
450.506	1528.91
450.88	1541.57
451.254	1549.93
451.628	1576.6
452.002	1610.27
452.376	1599.2
452.75	1658.18
453.123	1623.38
453.497	1637.61
453.871	1664.5
454.244	1711.73
454.618	1713.99
454.992	1753.77
455.365	1753.09
455.739	1778.17
456.112	1788.12
456.486	1824.95
456.859	1830.6
457.232	1867.89
457.606	1853.88
457.979	1897.27
458.352	1938.85
458.725	1942.01
459.099	1938.4
459.472	1966.19
459.845	2033.31
460.218	2031.73
460.591	2078.28
460.964	2063.14
461.337	2138.84
461.71	2142.46
462.083	2184.49
462.456	2184.26
462.829	2187.2
463.201	2225.85
463.574	2208.22
463.947	2245.96
464.32	2306.52
464.692	2300.65
465.065	2318.72
465.438	2374.09
465.81	2415.9
466.183	2382.68
466.555	2479.62
466.928	2481.43
467.3	2507.19
467.672	2557.14
468.045	2524.37
468.417	2585.61
468.789	2555.55
469.161	2614.31
469.534	2625.61
469.906	2697.02
470.278	2753.74
470.65	2736.11
471.022	2794.64
471.394	2845.49
471.766	2882.33
472.138	2928.43
472.51	2957.13
472.882	3006.84
473.253	3037.35
473.625	3047.07
473.997	3092.49
474.369	3149.66
474.74	3188.53
475.112	3264.69
475.484	3324.12
475.855	3384.23
476.227	3419.26
476.598	3475.08
476.97	3546.94
477.341	3591.46
477.713	3706.03
478.084	3684.11
478.455	3803.66
478.827	3794.62
479.198	3911.45
479.569	3975.18
479.94	4074.38
480.311	4140.15
480.682	4200.26
481.053	4329.29
481.424	4371.1
481.795	4464.66
482.166	4532.68
482.537	4574.71
482.908	4706.01
483.279	4773.8
483.65	4879.11
484.021	4920.69
484.391	5049.05
484.762	5087.01
485.133	5185.54
485.503	5299.89
485.874	5414.24
486.244	5497.62
486.615	5652.2
486.985	5722.02
487.356	5886.99
487.726	5933.32
488.097	6091.28
488.467	6173.54
488.837	6320.43
489.207	6437.03
489.578	6594.77
489.948	6653.07
490.318	6861.43
490.688	6929.45
491.058	7159.73
491.428	7240.4
491.798	7332.15
492.168	7548.87
492.538	7614.86
492.908	7780.28
493.278	8019.37
493.648	8116.09
494.017	8293.26
494.387	8359.92
494.757	8580.48
495.126	8697.77
495.496	8888.72
495.866	9083.29
496.235	9224.76
496.605	9387.47
496.974	9586.1
497.344	9805.08
497.713	9991.29
498.082	10054.11
498.452	10303.15
498.821	10501.79
499.19	10663.36
499.559	10857.48
499.928	11064.71
500.298	11193.52
500.667	11426.06
501.036	11533.17
501.405	11841.19
501.774	12018.81
502.143	12287.73
502.512	12397.78
502.88	12711.45
503.249	12893.81
503.618	13095.84
503.987	13310.3
504.356	13647.69
504.724	13755.94
505.093	13967.01
505.462	14160.22
505.83	14357.28
506.199	14688.79
506.567	14937.6
506.936	15112.74
507.304	15468.66
507.672	15621.65
508.041	15804.25
508.409	16177.79
508.777	16331.46
509.145	16583.43
509.514	16693.04
509.882	16973.48
510.25	17193.14
510.618	17454.37
510.986	17555.16
511.354	17874.02
511.722	18163.96
512.09	18357.62
512.458	18472.42
512.826	18966.2
513.193	18998.51
513.561	19241.67
513.929	19415
514.297	19702.22
514.664	19934.53
515.032	20122.78
515.4	20330.68
515.767	20616.32
516.135	20735.42
516.502	20736.32
516.869	21060.6
517.237	21390.77
517.604	21266.93
517.972	21812.68
518.339	21871.66
518.706	21958.21
519.073	22232.33
519.44	22448.59
519.808	22734.01
520.175	22823.72
520.542	23166.54
520.909	23359.98
521.276	23479.3
521.643	23836.35
522.009	24002.22
522.376	24149.56
522.743	24431.59
523.11	24728.98
523.477	24907.73
523.843	25073.15
524.21	25355.63
524.577	25616.87
524.943	25711.56
525.31	25881.95
525.676	26177.53
526.043	26391.31
526.409	26571.19
526.776	26902.26
527.142	27001.69
527.508	27170.27
527.874	27389.03
528.241	27573.43
528.607	27686.87
528.973	28069.01
529.339	28102.23
529.705	28317.14
530.071	28559.39
530.437	28760.51
530.803	28962.09
531.169	29100.84
531.535	29119.6
531.901	29266.94
532.267	29522.75
532.632	29709.19
532.998	29807.04
533.364	29843.65
533.73	30039.8
534.095	30283.64
534.461	30252.45
534.826	30438.89
535.192	30597.08
535.557	30829.39
535.923	30860.35
536.288	30851.76
536.653	31017.18
537.019	30993.9
537.384	31079.1
537.749	31126.33
538.114	31352.09
538.479	31265.53
538.845	31581.68
539.21	31415.81
539.575	31630.72
539.94	31627.56
540.305	31926.76
540.67	31939.41
541.034	32070.71
541.399	32058.96
541.764	32141.44
542.129	32140.09
542.494	32290.14
542.858	32540.75
543.223	32352.06
543.587	32563.13
543.952	32376.92
544.316	32591.15
544.681	32598.83
545.045	32828.88
545.41	32938.48
545.774	32865.94
546.138	32816.23
546.503	32975.77
546.867	33050.35
547.231	33318.59
547.595	33249.44
547.959	33364.91
548.324	33302.99
548.688	33395.87
549.052	33500.96
549.416	33439.49
549.779	33474.52
550.143	33635.19
550.507	33681.74
550.871	33754.06
551.235	33785.02
551.599	34028.17
551.962	33815.07
552.326	34065.23
552.689	34099.13
553.053	33935.52
553.417	34128.28
553.78	34605.33
554.143	34449.86
554.507	34585.67
554.87	34622.06
555.234	34897.98
555.597	34682.85
555.96	34795.16
556.323	34840.58
556.686	34908.15
557.05	35104.75
557.413	35115.6
557.776	35223.17
558.139	35483.95
558.502	35463.62
558.865	35448.93
559.228	35853.89
559.59	35770.73
559.953	35902.02
560.316	36211.17
560.679	36256.36
561.041	36351.05
561.404	36582
561.767	36744.49
562.129	36494.55
562.492	36900.41
562.854	36895.89
563.217	36975.67
563.579	37137.24
563.941	37323
564.304	37337.01
564.666	37655.87
565.028	37692.26
565.39	37655.87
565.753	37901.52
566.115	37788.07
566.477	38146.48
566.839	38175.63
567.201	38559.81
567.563	38448.17
567.925	38646.13
568.287	38725.68
568.648	38784.43
569.01	38979.23
569.372	39345.77
569.734	39163.41
570.095	39421.25
570.457	39663.05
570.819	39637.52
571.18	39555.49
571.542	39920.45
571.903	39815.59
572.265	40033.66
572.626	40145.3
572.987	40131.52
573.349	40368.12
573.71	40438.17
574.071	40571.28
574.432	40640.2
574.794	40873.42
575.155	40926.75
575.516	40883.81
575.877	40959.97
576.238	41028.21
576.599	41224.37
576.96	41137.59
577.32	41128.55
577.681	41270.69
578.042	41486.06
578.403	41470.24
578.763	41454.42
579.124	41413.74
579.485	41481.31
579.845	41653.28
580.206	41670.01
580.566	41749.78
580.927	41816.44
581.287	41912.71
581.648	41731.47
582.008	41926.27
582.368	41839.49
582.728	41906.84
583.089	41951.35
583.449	41890.11
583.809	41881.75
584.169	42049.43
584.529	41784.13
584.889	42149.54
585.249	41872.94
585.609	41826.61
585.969	41979.15
586.329	41853.05
586.688	42025.02
587.048	41879.72
587.408	41883.56
587.768	41882.43
588.127	41784.35
588.487	41754.52
588.846	42078.13
589.206	41623.91
589.565	41688.31
589.925	42051.46
590.284	41773.51
590.643	41918.14
591.003	41867.74
591.362	42060.96
591.721	41927.85
592.08	41911.81
592.44	42059.37
592.799	41901.64
593.158	41821.19
593.517	41693.06
593.876	41980.05
594.235	41818.25
594.593	41819.61
594.952	41896.44
595.311	41739.38
595.67	41920.62
596.029	41952.03
596.387	41995.2
596.746	42114.29
597.104	41916.78
597.463	41977.57
597.822	42046.95
598.18	41908.64
598.538	41927.4
598.897	42172.82
599.255	41908.64
599.613	42247.39
599.972	42071.13
600.33	42101.41
600.688	42079.94
601.046	42103.67
601.404	42528.97
601.762	42309.76
602.12	42448.52
602.478	42510.21
602.836	42425.69
603.194	42178.24
603.552	42287.16
603.91	42300.05
604.268	42360.16
604.625	42421.85
604.983	42601.51
605.341	42296.88
605.698	42542.75
606.056	42752.92
606.413	42494.84
606.771	42740.94
607.128	42746.14
607.485	42584.33
607.843	42715.85
608.2	42909.52
608.557	43133.24
608.914	42897.09
609.272	43030.42
609.629	43117.88
609.986	43269.06
610.343	43241.26
610.7	43486.68
611.057	43278.1
611.414	43307.25
611.771	43506.34
612.127	43639.45
612.484	43576.4
612.841	43860.23
613.198	43634.7
613.554	43610.97
613.911	43991.75
614.267	43951.53
614.624	43822.49
614.98	44051.41
615.337	44274.68
615.693	44191.3
616.05	44219.32
616.406	44254.57
616.762	44278.3
617.118	44303.38
617.475	44346.09
617.831	44410.27
618.187	44477.84
618.543	44530.95
618.899	44728.91
619.255	44582.47
619.611	44525.75
619.967	44905.4
620.323	45023.36
620.678	44715.35
621.034	44788.79
621.39	44772.98
621.746	44763.71
622.101	45098.16
622.457	44759.64
622.812	45014.1
623.168	45090.93
623.523	45157.82
623.879	45232.17
624.234	44999.41
624.589	45129.12
624.945	45127.54
625.3	45288.22
625.655	45149.69
626.01	45220.2
626.365	45250.93
626.72	45087.32
627.075	45016.58
627.43	44950.15
627.785	45173.42
628.14	45103.36
628.495	45111.05
628.85	45202.57
629.205	45009.58
629.559	45113.53
629.914	45050.48
630.269	44949.69
630.623	44779.08
630.978	44772.75
631.332	45002.8
631.687	45024.27
632.041	44939.75
632.396	44906.76
632.75	44822.69
633.104	44903.37
633.459	44666.31
633.813	44586.99
634.167	44738.63
634.521	44632.64
634.875	44645.97
635.229	44523.94
635.583	44364.4
635.937	44420.22
636.291	44312.65
636.645	44399.65
636.999	44179.54
637.352	44318.75
637.706	44069.72
638.06	44303.38
638.413	44072.2
638.767	43896.61
639.121	44060.23
639.474	43780.91
639.828	43853.23
640.181	43807.58
640.534	44005.76
640.888	43694.13
641.241	43531.2
641.594	43563.97
641.947	43582.5
642.301	43482.16
642.654	43590.63
643.007	43425.89
643.36	43569.39
643.713	43359.68
644.066	43554.93
644.419	43146.13
644.771	42789.3
645.124	42384.79
645.477	42478.57
645.83	42220.05
646.182	42361.29
646.535	42212.36
646.888	42380.5
647.24	42075.65
647.593	42385.92
647.945	42132.37
648.298	42233.83
648.65	41942.54
649.002	41804.92
649.355	41561.31
649.707	41614.41
650.059	41624.58
650.411	42247.62
650.763	42392.47
651.115	42943.64
651.467	42808.51
651.819	42756.76
652.171	42844.44
652.523	42584.33
652.875	42648.06
653.227	42457.78
653.578	42732.8
653.93	42594.28
654.282	42520.61
654.633	42470.89
654.985	42582.07
655.337	42586.14
655.688	42420.72
656.039	42573.94
656.391	42309.09
656.742	42518.12
657.094	42416.2
657.445	42479.93
657.796	42439.25
658.147	42472.47
658.498	42486.48
658.849	42701.62
659.2	42421.62
659.551	42326.26
659.902	42614.84
660.253	42257.56
660.604	42608.06
660.955	42349.99
661.306	42528.97
661.656	42404.9
662.007	42489.87
662.358	42453.94
662.708	42434.73
663.059	42423.43
663.409	42309.54
663.76	42408.52
664.11	42560.83
664.461	42585.01
664.811	42624.56
665.161	42521.06
665.511	42515.86
665.862	42462.53
666.212	42637.44
666.562	42538.91
666.912	42424.56
667.262	42489.65
667.612	42456.88
667.962	42476.31
668.312	42353.15
668.662	42782.75
669.011	42549.76
669.361	42469.76
669.711	42707.94
670.06	42397.22
670.41	42410.78
670.76	42364.68
671.109	42559.25
671.459	42471.34
671.808	42508.4
672.157	42434.96
672.507	42116.1
672.856	42264.79
673.205	42312.7
673.554	42244.68
673.904	42242.42
674.253	42502.98
674.602	42323.1
674.951	41670.91
675.3	41592.95
675.649	42225.7
675.998	42051.46
676.346	42147.28
676.695	42259.6
677.044	41993.16
677.393	42078.36
677.741	42059.37
678.09	42079.71
678.438	41881.3
678.787	42080.62
679.135	42118.36
679.484	41745.94
679.832	41872.49
680.181	41824.58
680.529	41702.55
680.877	41772.38
681.225	41651.7
681.573	41858.25
681.922	41643.79
682.27	41452.38
682.618	41394.08
682.966	41261.66
683.314	41365.16
683.661	41281.77
684.009	41281.54
684.357	41029.57
684.705	40898.05
685.053	40987.76
685.4	40768.33
685.748	40805.62
686.095	40665.74
686.443	40472.75
686.79	40422.36
687.138	40567.89
687.485	40484.27
687.832	40198.41
688.18	40182.59
688.527	39985.3
688.874	39992.08
689.221	39904.4
689.568	39716.84
689.915	39647.91
690.262	39708.48
690.609	39557.29
690.956	39348.26
691.303	39326.34
691.65	39153.01
691.997	39203.4
692.344	38947.82
692.69	38908.5
693.037	38842.96
693.383	38563.42
693.73	38575.17
694.077	38367.49
694.423	38443.42
694.769	38275.52
695.116	38261.96
695.462	37916.66
695.808	37836.66
696.155	37788.98
696.501	37485.48
696.847	37528.42
697.193	37261.08
697.539	37408.65
697.885	37207.07
698.231	37055.44
698.577	36995.78
698.923	36933.63
699.269	36602.79
699.614	36545.85
699.96	36393.08
700.306	36434.89
700.651	36168.91
700.997	36102.92
701.342	36037.84
701.688	35832.87
702.033	35660.9
702.379	35723.5
702.724	35511.3
703.069	35524.86
703.415	35135.04
703.76	35034.02
704.105	35127.35
704.45	35019.33
704.795	34791.99
705.14	34632.45
705.485	34591.77
705.83	34513.13
706.175	34438.33
706.52	34354.04
706.865	34242.18
707.209	34202.86
707.554	34058.91
707.899	33907.72
708.243	33856.88
708.588	33788.63
708.932	33669.09
709.277	33559.26
709.621	33464.12
709.966	33335.99
710.31	33487.4
710.654	33159.04
710.998	33170.34
711.342	33183.9
711.687	32898.94
712.031	32974.64
712.375	32819.39
712.719	32774.87
713.063	32623.92
713.407	32816
713.75	32606.97
714.094	32660.07
714.438	32470.93
714.782	32497.37
715.125	32354.54
715.469	32534.43
715.812	32197.03
716.156	32208.56
716.499	32148.45
716.843	32186.64
717.186	32018.73
717.53	32196.81
717.873	32140.31
718.216	32067.55
718.559	31881.11
718.902	31632.08
719.246	31879.75
719.589	31646.31
719.932	31544.85
720.275	31637.5
720.617	31609.25
720.96	31477.96
721.303	31592.3
721.646	31536.49
721.989	31477.51
722.331	31419.2
722.674	31306.44
723.016	31259.21
723.359	31215.82
723.701	31363.84
724.044	31265.76
724.386	31154.12
724.729	31383.72
725.071	31287
725.413	31234.35
725.755	31221.02
726.097	31014.24
726.439	30983.96
726.782	30900.8
727.124	31135.37
727.465	31024.86
727.807	30863.96
728.149	30935.82
728.491	30943.51
728.833	31033.9
729.175	31059.66
729.516	30840.46
729.858	30946.22
730.199	30938.08
730.541	30954.81
730.882	30733.34
731.224	30958.88
731.565	30806.34
731.906	30889.05
732.248	30933.57
732.589	30706.23
732.93	30672.1
733.271	30738.32
733.612	30713.68
733.953	30873.45
734.294	30920.68
734.635	30830.07
734.976	30971.76
735.317	30816.28
735.658	30814.02
735.999	30739.22
736.339	30813.79
736.68	30834.13
737.021	30788.03
737.361	30809.73
737.702	30978.31
738.042	30877.97
738.383	30934.47
738.723	30971.98
739.063	30891.31
739.404	31072.54
739.744	30950.29
740.084	30863.28
740.424	31030.74
740.764	31007.69
741.104	31250.17
741.444	31091.08
741.784	30965.88
742.124	31189.15
742.464	31167.46
742.804	31100.79
743.143	31129.04
743.483	31186.89
743.823	31191.41
744.162	31237.96
744.502	31339.88
744.841	31292.43
745.181	31558.18
745.52	31306.44
745.86	31540.55
746.199	31575.36
746.538	31555.7
746.877	31866.65
747.216	31939.64
747.556	31735.8
747.895	31783.49
748.234	31854.67
748.573	31827.1
748.911	31974.22
749.25	32158.62
749.589	32001.56
749.928	32204.94
750.267	32230.03
750.605	32391.15
750.944	32336.47
751.283	32358.39
751.621	32424.6
751.96	32416.69
752.298	32488.1
752.636	32659.4
752.975	32701.65
753.313	32771.26
753.651	32923.57
753.989	32794.53
754.327	32964.02
754.666	32936.22
755.004	33126.28
755.342	33225.93
755.679	33265.26
756.017	33108.88
756.355	33377.34
756.693	33279.49
757.031	33534.17
757.368	33481.97
757.706	33545.93
758.044	33453.72
758.381	33598.35
758.719	33564
759.056	33651.23
759.394	33665.92
759.731	33409.43
760.068	33710.67
760.405	33781.17
760.743	33594.06
761.08	33688.07
761.417	33485.59
761.754	33601.29
762.091	33639.03
762.428	33521.52
762.765	33571.01
763.102	33634.96
763.438	33685.36
763.775	33524.23
764.112	33514.06
764.449	33742.53
764.785	33644.23
765.122	33472.93
765.458	33385.93
765.795	33495.53
766.131	33465.02
766.467	33463.22
766.804	33238.82
767.14	33173.51
767.476	33418.25
767.812	33260.28
768.148	33277.23
768.485	33252.6
768.821	33067.75
769.157	33030.69
769.492	33126.73
769.828	33017.35
770.164	32870.24
770.5	32809.22
770.836	32731.26
771.171	32658.94
771.507	32670.24
771.842	32413.07
772.178	32424.37
772.513	32413.3
772.849	32234.77
773.184	32278.61
773.519	32144.15
773.855	31878.63
774.19	31909.81
774.525	31774.67
774.86	31681.79
775.195	31736.03
775.53	31613.1
775.865	31565.64
776.2	31376.94
776.535	31094.24
776.87	31201.35
777.205	30951.42
777.539	31034.81
777.874	31054.92
778.209	30740.58
778.543	30775.15
778.878	30634.14
779.212	30491.99
779.547	30315.28
779.881	30362.96
780.215	30107.6
780.55	30226.92
780.884	29909.19
781.218	29907.6
781.552	29969.52
781.886	29710.77
782.22	29620.83
782.554	29511
782.888	29347.84
783.222	29294.74
783.556	29131.8
783.889	29184.46
784.223	29029.43
784.557	28826.73
784.89	28927.97
785.224	28651.14
785.557	28570.92
785.891	28529.79
786.224	28476.23
786.558	28450.47
786.891	28282.11
787.224	28060.87
787.557	28004.6
787.891	27999.63
788.224	27870.14
788.557	27971.61
788.89	27757.83
789.223	27688.45
789.556	27617.27
789.888	27484.84
790.221	27479.64
790.554	27199.2
790.887	27194.45
791.219	27085.76
791.552	26969.38
791.884	26928.7
792.217	26966.44
792.549	26983.84
792.882	26610.06
793.214	26450.07
793.546	26573
793.879	26428.15
794.211	26263.41
794.543	26317.64
794.875	26289.39
795.207	26173.92
795.539	26067.25
795.871	26069.96
796.203	25996.29
796.535	25716.98
796.867	25814.6
797.198	25610.77
797.53	25586.81
797.862	25373.94
798.193	25559.47
798.525	25206.94
798.856	25311.34
799.188	25007.39
799.519	25032.7
799.85	24917.45
800.182	24931.46
800.513	24993.16
800.844	24595.65
801.175	24865.7
801.506	24770.56
801.837	24563.56
802.168	24626.84
802.499	24531.47
802.83	24264.36
803.161	24379.84
803.491	24265.27
803.822	24322.67
804.153	24094.42
804.483	23886.52
804.814	23800.65
805.145	23960.64
805.475	23888.1
805.805	23772.85
806.136	23795.9
806.466	23672.51
806.796	23625.96
807.126	23344.39
807.457	23437.27
807.787	23506.64
808.117	23516.81
808.447	23233.2
808.777	23356.59
809.107	23123.15
809.436	23141.45
809.766	23016.49
810.096	23194.56
810.426	23019.42
810.755	23035.02
811.085	22908.47
811.414	22896.04
811.744	22733.1
812.073	22709.15
812.403	22615.14
812.732	22639.77
813.061	22618.53
813.39	22493.79
813.719	22374.69
814.049	22517.52
814.378	22325.88
814.707	22264.19
815.036	22340.34
815.365	22222.61
815.693	22060.8
816.022	22075.04
816.351	21980.58
816.68	21915.95
817.008	21936.97
817.337	21860.81
817.665	21837.31
817.994	21828.72
818.322	21825.56
818.651	21727.93
818.979	21624.88
819.307	21675.05
819.636	21561.83
819.964	21562.74
820.292	21567.71
820.62	21565.9
820.948	21519.35
821.276	21607.93
821.604	21507.6
821.932	21706.01
822.259	21543.53
822.587	21551.44
822.915	21485.68
823.243	21474.83
823.57	21450.2
823.898	21604.32
824.225	21592.57
824.553	21481.16
824.88	21443.65
825.207	21599.8
825.535	21464.89
825.862	21571.55
826.189	21456.3
826.516	21506.02
826.843	21538.33
827.17	21575.39
827.497	21613.36
827.824	21534.04
828.151	21650.19
828.478	21541.72
828.805	21684.99
829.131	21586.01
829.458	21535.62
829.785	21456.75
830.111	21488.16
830.438	21692.68
830.764	21479.35
831.09	21582.17
831.417	21419.01
831.743	21555.51
832.069	21457.88
832.395	21465.79
832.722	21533.13
833.048	21435.06
833.374	21627.82
833.7	21386.7
834.026	21431.22
834.351	21373.82
834.677	21487.26
835.003	21340.82
835.329	21443.42
835.654	21322.74
835.98	21153.94
836.306	21296.76
836.631	21152.35
836.956	21403.42
837.282	21360.26
837.607	21138.79
837.932	21196.42
838.258	21212.24
838.583	21155.07
838.908	21069.64
839.233	21109.19
839.558	21011.34
839.883	20987.84
840.208	20850.44
840.533	20986.93
840.858	20899.93
841.182	20822.42
841.507	20856.99
841.832	20797.56
842.156	20678.47
842.481	20740.84
842.805	20682.99
843.13	20463.11
843.454	20607.28
843.778	20503.56
844.103	20402.77
844.427	20398.47
844.751	20455.65
845.075	20292.04
845.399	20238.93
845.723	20203.9
846.047	20206.84
846.371	20053.4
846.695	19963.01
847.019	19889.79
847.343	19838.94
847.666	19744.71
847.99	19659.96
848.313	19555.33
848.637	19576.35
848.96	19481.44
849.284	19485.96
849.607	19335.23
849.931	19301.55
850.254	19156.02
850.577	19027.66
850.9	18843.04
851.223	18957.61
851.546	18857.95
851.869	18748.57
852.192	18925.75
852.515	18686.66
852.838	18556.94
853.161	18629.48
853.483	18424.29
853.806	18462.48
854.129	18420.67
854.451	18438.3
854.774	18202.6
855.096	18147.23
855.419	18111.08
855.741	18121.47
856.063	17913.34
856.385	17961.02
856.708	17865.21
857.03	17822.95
857.352	17933.23
857.674	17819.11
857.996	17604.42
858.318	17582.5
858.64	17634.71
858.961	17537.76
859.283	17475.61
859.605	17369.18
859.926	17441.49
860.248	17406.01
860.57	17252.79
860.891	17216.86
861.212	17204.21
861.534	17075.4
861.855	17090.77
862.176	17141.84
862.498	17012.58
862.819	17089.64
863.14	16940.94
863.461	16954.72
863.782	16905.91
864.103	16893.26
864.424	16829.3
864.745	16892.35
865.065	16881.73
865.386	16693.94
865.707	16740.49
866.027	16840.15
866.348	16773.26
866.668	16629.53
866.989	16584.11
867.309	16486.04
867.63	16593.38
867.95	16580.5
868.27	16496.66
868.59	16582.53
868.91	16448.07
869.23	16401.97
869.55	16324.23
869.87	16293.27
870.19	16268.41
870.51	16322.42
870.83	16250.79
871.15	16215.53
871.469	16190.68
871.789	16307.06
872.109	16168.08
872.428	16110.68
872.748	16160.17
873.067	16127.63
873.386	16150.45
873.706	16028.42
874.025	15974.18
874.344	15965.6
874.663	16043.56
874.982	15973.96
875.301	15892.83
875.62	15855.54
875.939	15757.92
876.258	15875.66
876.577	15801.08
876.896	15773.96
877.214	15774.87
877.533	15786.39
877.852	15747.98
878.17	15761.99
878.489	15785.71
878.807	15623.46
879.125	15610.58
879.444	15604.7
879.762	15565.38
880.08	15645.15
880.398	15465.95
880.716	15563.8
881.034	15431.83
881.352	15515.67
881.67	15465.72
881.988	15303.47
882.306	15286.97
882.624	15256.69
882.941	15114.77
883.259	15226.41
883.577	15271.83
883.894	15247.42
884.212	15128.78
884.529	15163.36
884.846	15049.92
885.164	14943.7
885.481	14922.91
885.798	14908.45
886.115	14866.64
886.432	14897.15
886.75	14885.4
887.067	14849.69
887.383	14862.58
887.7	14781
888.017	14660.55
888.334	14596.37
888.651	14637.95
888.967	14583.71
889.284	14558.85
889.6	14548.69
889.917	14430.27
890.233	14464.85
890.55	14388.69
890.866	14341.69
891.182	14340.56
891.498	14313.89
891.815	14258.75
892.131	14143.72
892.447	14220.78
892.763	14103.73
893.079	14045.2
893.395	14071.18
893.71	14079.77
894.026	13962.03
894.342	13948.02
894.657	13831.64
894.973	13826.44
895.289	13759.33
895.604	13725.66
895.92	13714.13
896.235	13664.87
896.55	13593.23
896.865	13560.69
897.181	13549.62
897.496	13521.14
897.811	13519.79
898.126	13465.1
898.441	13288.15
898.756	13321.15
899.071	13256.06
899.386	13307.81
899.7	13158.21
900.015	12972.91
900.33	12935.85
900.644	12900.14
900.959	12850.88
901.273	12787.83
901.588	12892.01
901.902	12819.24
902.216	12722.74
902.531	12737.21
902.845	12686.14
903.159	12558
903.473	12525.01
903.787	12591.67
904.101	12380.38
904.415	12471.9
904.729	12390.1
905.042	12430.1
905.356	12329.53
905.67	12305.13
905.984	12250.89
906.297	12169.09
906.611	12111.24
906.924	12111.69
907.237	12054.97
907.551	12045.47
907.864	11950.56
908.177	11949.43
908.491	11847.51
908.804	11792.83
909.117	11726.39
909.43	11652.49
909.743	11607.29
910.056	11675.54
910.368	11577.46
910.681	11540.18
910.994	11497.24
911.307	11375.89
911.619	11359.39
911.932	11393.74
912.244	11246.4
912.557	11225.61
912.869	11109.68
913.181	11189.45
913.494	11110.81
913.806	11007.76
914.118	10940.64
914.43	10902.68
914.742	10925.28
915.054	10888.22
915.366	10846.86
915.678	10848.22
915.99	10697.94
916.302	10678.5
916.613	10548.79
916.925	10655
917.236	10574.78
917.548	10543.82
917.859	10548.34
918.171	10433.77
918.482	10413.43
918.794	10320.77
919.105	10284.84
919.416	10230.83
919.727	10209.82
920.038	10129.59
920.349	10132.76
920.66	10123.04
920.971	10070.16
921.282	10007.79
921.593	9921.46
921.903	9826.78
922.214	9912.87
922.525	9835.59
922.835	9829.49
923.146	9724.41
923.456	9740.22
923.767	9658.19
924.077	9657.06
924.387	9601.7
924.697	9555.14
925.008	9493.68
925.318	9428.82
925.628	9429.72
925.938	9409.84
926.248	9324.19
926.558	9289.61
926.867	9296.85
927.177	9228.37
927.487	9188.15
927.796	9101.6
928.106	9204.19
928.416	9021.37
928.725	9046.01
929.034	9041.26
929.344	8979.79
929.653	8935.95
929.962	8937.76
930.271	8791.77
930.581	8782.74
930.89	8743.87
931.199	8694.38
931.508	8710.42
931.817	8664.09
932.125	8642.85
932.434	8592.23
932.743	8525.79
933.051	8517.21
933.36	8500.71
933.669	8418
933.977	8399.02
934.286	8344.1
934.594	8347.94
934.902	8321.5
935.21	8220.49
935.519	8215.52
935.827	8133.94
936.135	8084.45
936.443	8086.48
936.751	8057.33
937.059	8043.32
937.367	7982.3
937.674	7901.85
937.982	7927.84
938.29	7909.99
938.597	7850.56
938.905	7788.41
939.213	7719.94
939.52	7733.27
939.827	7698.02
940.135	7672.93
940.442	7624.57
940.749	7677.45
941.056	7680.62
941.363	7498.7
941.67	7549.1
941.977	7457.8
942.284	7446.73
942.591	7420.06
942.898	7434.07
943.205	7363.79
943.511	7385.03
943.818	7331.93
944.125	7253.06
944.431	7217.13
944.738	7172.61
945.044	7167.41
945.35	7166.73
945.657	7047.87
945.963	7133.74
946.269	7012.61
946.575	7075.21
946.881	6931.03
947.187	6936.23
947.493	6912.73
947.799	6907.08
948.105	6837.25
948.41	6852.84
948.716	6791.83
949.022	6754.31
949.327	6742.79
949.633	6682.68
949.938	6658.72
950.244	6606.3
950.549	6627.31
950.854	6597.03
951.16	6596.8
951.465	6533.98
951.77	6500.54
952.075	6496.02
952.38	6490.37
952.685	6408.79
952.99	6361.56
953.294	6383.93
953.599	6316.59
953.904	6269.81
954.209	6214.89
954.513	6226.87
954.818	6237.72
955.122	6240.2
955.426	6201.11
955.731	6154.78
956.035	6130.38
956.339	6075.69
956.643	6120.43
956.948	6019.87
957.252	6045.41
957.556	5957.27
957.86	6023.94
958.163	6022.36
958.467	5920.66
958.771	5876.14
959.075	5899.87
959.378	5864.85
959.682	5798.63
959.985	5765.19
960.289	5756.37
960.592	5688.58
960.896	5727
961.199	5649.48
961.502	5642.93
961.805	5632.08
962.108	5573.33
962.411	5541.01
962.714	5575.59
963.017	5515.25
963.32	5537.62
963.623	5449.26
963.926	5461.24
964.228	5383.95
964.531	5406.55
964.833	5380.79
965.136	5360.9
965.438	5324.75
965.741	5291.3
966.043	5343.96
966.345	5299.21
966.648	5245.65
966.95	5257.86
967.252	5250.4
967.554	5182.15
967.856	5103.51
968.158	5099.67
968.46	5096.05
968.761	5103.06
969.063	5127.46
969.365	5034.59
969.666	4998.65
969.968	4995.49
970.269	4968.37
970.571	4974.7
970.872	4922.95
971.174	4904.65
971.475	4895.38
971.776	4854.7
972.077	4842.05
972.378	4814.48
972.679	4821.48
972.98	4769.96
973.281	4739.45
973.582	4753.69
973.883	4712.33
974.183	4676.4
974.484	4703.07
974.785	4638.44
975.085	4647.48
975.386	4610.64
975.686	4625.78
975.986	4588.5
976.287	4580.36
976.587	4503.53
976.887	4479.8
977.187	4474.15
977.487	4510.53
977.787	4401.83
978.087	4437.76
978.387	4400.48
978.687	4381.72
978.987	4367.03
979.286	4322.97
979.586	4322.97
979.885	4315.51
980.185	4283.87
980.484	4280.03
980.784	4246.58
981.083	4278.9
981.382	4235.28
981.682	4222.4
981.981	4178.79
982.28	4139.69
982.579	4107.38
982.878	4126.13
983.177	4081.16
983.475	4117.77
983.774	4042.07
984.073	4064.89
984.372	3992.58
984.67	4003.43
984.969	3979.47
985.267	3980.38
985.566	3947.83
985.864	3933.37
986.162	3964.78
986.461	3933.6
986.759	3878.68
987.057	3841.85
987.355	3871.45
987.653	3854.05
987.951	3805.24
988.249	3794.17
988.547	3786.93
988.844	3767.05
989.142	3716.88
989.44	3702.87
989.737	3670.78
990.035	3660.61
990.332	3623.1
990.63	3662.87
990.927	3670.1
991.224	3648.18
991.521	3565.7
991.819	3589.65
992.116	3545.36
992.413	3545.81
992.71	3498.13
993.006	3518.92
993.303	3534.06
993.6	3496.09
993.897	3490.9
994.193	3424.46
994.49	3475.3
994.787	3409.77
995.083	3372.03
995.379	3396.89
995.676	3355.08
995.972	3332.48
996.268	3319.83
996.565	3320.96
996.861	3281.18
997.157	3241.41
997.453	3247.97
997.749	3201.64
998.044	3232.15
998.34	3234.41
998.636	3167.29
998.932	3175.65
999.227	3172.26
999.523	3143.34
999.818	3108.76
1000.114	3104.47
1000.409	3097.01
1000.704	3046.16
1001	3055.88
1001.295	3024.92
1001.59	2998.48
1001.885	2994.19
1002.18	2974.53
1002.475	2971.14
1002.77	2924.58
1003.065	2959.84
1003.359	2965.71
1003.654	2880.29
1003.949	2880.29
1004.243	2886.39
1004.538	2856.34
1004.832	2883.68
1005.127	2819.5
1005.421	2815.89
1005.715	2770.46
1006.009	2789.22
1006.304	2780.63
1006.598	2709.67
1006.892	2723.01
1007.186	2690.92
1007.48	2727.53
1007.773	2699.51
1008.067	2695.44
1008.361	2625.83
1008.655	2646.63
1008.948	2610.02
1009.242	2609.34
1009.535	2603.24
1009.829	2590.36
1010.122	2565.05
1010.415	2540.19
1010.708	2526.85
1011.001	2513.97
1011.295	2477.14
1011.588	2457.93
1011.881	2469.45
1012.173	2459.96
1012.466	2445.73
1012.759	2450.25
1013.052	2393.52
1013.344	2393.07
1013.637	2346.97
1013.93	2369.57
1014.222	2354.88
1014.514	2328.67
1014.807	2334.54
1015.099	2324.15
1015.391	2294.77
1015.683	2267.88
1015.976	2279.86
1016.268	2209.57
1016.56	2218.84
1016.851	2217.71
1017.143	2218.61
1017.435	2183.59
1017.727	2176.58
1018.018	2162.57
1018.31	2143.59
1018.602	2148.33
1018.893	2108.11
1019.185	2073.99
1019.476	2062.01
1019.767	2059.97
1020.058	2060.43
1020.35	2034.89
1020.641	1985.85
1020.932	2043.25
1021.223	1969.58
1021.514	2005.06
1021.804	1971.61
1022.095	1945.17
1022.386	1927.77
1022.677	1913.09
1022.967	1915.8
1023.258	1888.68
1023.548	1911.05
1023.839	1866.76
1024.129	1871.28
1024.419	1867.21
1024.709	1831.28
1025	1809.59
1025.29	1805.97
1025.58	1788.12
1025.87	1783.6
1026.16	1768.91
1026.449	1739.76
1026.739	1718.97
1027.029	1739.76
1027.319	1730.72
1027.608	1724.62
1027.898	1735.91
1028.187	1691.62
1028.477	1681
1028.766	1676.93
1029.055	1644.62
1029.344	1647.1
1029.634	1610.72
1029.923	1622.47
1030.212	1598.52
1030.501	1604.39
1030.79	1613.66
1031.078	1601.68
1031.367	1564.17
1031.656	1575.92
1031.945	1580.89
1032.233	1535.69
1032.522	1506.09
1032.81	1519.2
1033.099	1536.37
1033.387	1499.08
1033.675	1516.49
1033.963	1489.14
1034.251	1454.34
1034.54	1448.46
1034.828	1426.32
1035.116	1418.64
1035.403	1437.39
1035.691	1416.6
1035.979	1413.66
1036.267	1386.32
1036.554	1396.49
1036.842	1379.09
1037.129	1378.41
1037.417	1347.45
1037.704	1355.13
1037.992	1325.98
1038.279	1320.33
1038.566	1314.91
1038.853	1314.91
1039.14	1314.91
