Data from 583_FLMS001491_006.txt Node
Date: Thu Apr 19 15:43:28 BST 2018
User: hsy
Spectrometer: FLMS00149
Trigger mode: 0
Integration Time (sec): 1.000000E-2
Scans to average: 10
Electric dark correction enabled: true
Nonlinearity correction enabled: false
Boxcar width: 0
XAxis mode: Wavelengths
Number of Pixels in Spectrum: 2048
>>>>>Begin Spectral Data<<<<<
341.393	-21.52
341.776	-21.52
342.16	-21.52
342.543	-55.87
342.927	-66.72
343.31	-44.12
343.693	-78.7
344.077	-61.07
344.46	-72.82
344.843	-59.49
345.226	-43.45
345.61	-41.64
345.993	4.69
346.376	-13.84
346.759	-0.28
347.142	32.03
347.525	51.69
347.908	51.24
348.291	85.36
348.674	76.1
349.057	114.29
349.44	121.75
349.823	146.15
350.206	159.49
350.588	236.32
350.971	252.82
351.354	269.54
351.737	272.25
352.119	270.22
352.502	275.19
352.884	299.6
353.267	309.54
353.65	316.09
354.032	335.53
354.414	327.39
354.797	327.17
355.179	350.22
355.562	342.08
355.944	354.51
356.326	359.48
356.709	360.84
357.091	371.69
357.473	369.65
357.855	372.36
358.238	397
358.62	368.52
359.002	371.01
359.384	368.52
359.766	372.82
360.148	366.94
360.53	367.84
360.912	375.53
361.294	372.82
361.676	347.73
362.057	367.39
362.439	370.1
362.821	368.3
363.203	356.09
363.584	357.9
363.966	377.79
364.348	353.83
364.729	363.32
365.111	376.43
365.493	375.75
365.874	362.87
366.256	374.62
366.637	347.73
367.019	360.61
367.4	346.38
367.781	359.93
368.163	363.32
368.544	382.08
368.925	371.46
369.306	367.62
369.688	379.37
370.069	370.1
370.45	382.08
370.831	374.85
371.212	361.52
371.593	363.1
371.974	353.61
372.355	352.7
372.736	350.44
373.117	382.98
373.498	348.63
373.879	354.74
374.26	369.88
374.641	376.2
375.021	376.2
375.402	397
375.783	383.21
376.163	373.49
376.544	396.54
376.925	409.65
377.305	396.32
377.686	370.56
378.066	390.67
378.447	388.86
378.827	386.15
379.208	373.94
379.588	401.51
379.968	408.29
380.349	414.62
380.729	386.83
381.109	391.57
381.489	399.26
381.87	411.01
382.25	402.64
382.63	406.49
383.01	418.69
383.39	430.21
383.77	433.6
384.15	447.39
384.53	421.4
384.91	439.93
385.29	415.75
385.67	437.9
386.049	431.12
386.429	436.32
386.809	448.29
387.189	432.47
387.568	438.58
387.948	437.22
388.328	436.77
388.707	450.33
389.087	460.04
389.466	448.52
389.846	468.41
390.225	462.76
390.605	453.72
390.984	452.14
391.363	473.38
391.743	491
392.122	453.04
392.501	488.97
392.881	482.64
393.26	485.58
393.639	477.45
394.018	489.87
394.397	496.65
394.776	487.61
395.155	488.29
395.534	505.47
395.913	497.78
396.292	537.33
396.671	535.97
397.05	498.24
397.429	514.28
397.808	518.57
398.186	537.56
398.565	509.53
398.944	526.94
399.323	530.78
399.701	525.13
400.08	524.22
400.458	527.16
400.837	518.35
401.215	536.43
401.594	556.99
401.972	552.25
402.351	563.32
402.729	549.53
403.107	551.79
403.486	583.43
403.864	562.64
404.242	576.2
404.62	583.43
404.999	559.48
405.377	588.63
405.755	581.4
406.133	590.66
406.511	574.17
406.889	614.16
407.267	621.85
407.645	602.19
408.023	601.06
408.401	636.99
408.779	631.57
409.156	623.88
409.534	633.83
409.912	652.36
410.29	674.05
410.667	667.04
411.045	671.11
411.422	669.53
411.8	702.3
412.178	687.16
412.555	682.64
412.933	672.69
413.31	693.03
413.687	715.86
414.065	691.9
414.442	702.98
414.819	727.38
415.197	739.36
415.574	740.94
415.951	719.25
416.328	754.05
416.705	746.14
417.082	773.48
417.46	762.86
417.837	745.91
418.214	778
418.591	782.52
418.967	789.53
419.344	801.28
419.721	778.91
420.098	778
420.475	823.88
420.852	784.33
421.228	784.56
421.605	834.5
421.982	829.3
422.358	836.08
422.735	827.27
423.111	820.71
423.488	850.77
423.864	854.38
424.241	853.03
424.617	847.83
424.994	875.85
425.37	865.23
425.746	890.77
426.123	902.07
426.499	905
426.875	916.53
427.251	934.61
427.627	919.24
428.003	933.93
428.379	937.77
428.756	982.74
429.132	961.05
429.507	967.15
429.883	1001.05
430.259	978.45
430.635	1024.32
431.011	1002.18
431.387	1004.89
431.763	1045.79
432.138	1058.22
432.514	1028.17
432.89	1062.97
433.265	1080.14
433.641	1092.12
434.016	1094.38
434.392	1109.29
434.767	1145.45
435.143	1113.81
435.518	1133.25
435.894	1140.25
436.269	1139.35
436.644	1179.8
437.02	1198.56
437.395	1192.45
437.77	1188.84
438.145	1200.36
438.52	1184.09
438.895	1246.01
439.271	1224.77
439.646	1237.43
440.021	1247.82
440.395	1252.57
440.77	1255.05
441.145	1259.35
441.52	1270.87
441.895	1277.65
442.27	1308.84
442.645	1270.42
443.019	1316.75
443.394	1318.1
443.769	1291.89
444.143	1310.64
444.518	1340.47
444.892	1345.67
445.267	1355.61
445.641	1374.82
446.016	1351.09
446.39	1393.58
446.764	1365.33
447.139	1400.13
447.513	1401.26
447.887	1395.39
448.262	1441.94
448.636	1405.1
449.01	1447.36
449.384	1428.61
449.758	1458.89
450.132	1458.21
450.506	1497.76
450.88	1517.87
451.254	1490.07
451.628	1503.18
452.002	1516.74
452.376	1548.83
452.75	1555.16
453.123	1587.47
453.497	1585.89
453.871	1589.28
454.244	1620.92
454.618	1657.53
454.992	1669.28
455.365	1688.94
455.739	1706.34
456.112	1727.81
456.486	1749.05
456.859	1734.14
457.232	1771.87
457.606	1799.22
457.979	1846.9
458.352	1862.27
458.725	1876.28
459.099	1882.38
459.472	1924.41
459.845	1921.93
460.218	1946.11
460.591	1964.41
460.964	1986.56
461.337	2039.66
461.71	2060.23
462.083	2064.52
462.456	2067.91
462.829	2112.88
463.201	2114.92
463.574	2139.1
463.947	2146.1
464.32	2170.73
464.692	2223.39
465.065	2216.83
465.438	2231.3
465.81	2306.55
466.183	2304.52
466.555	2367.11
466.928	2381.8
467.3	2399.43
467.672	2440.56
468.045	2447.56
468.417	2443.04
468.789	2463.61
469.161	2499.99
469.534	2524.85
469.906	2579.54
470.278	2610.95
470.65	2627.22
471.022	2693.66
471.394	2716.71
471.766	2741.57
472.138	2772.75
472.51	2831.51
472.882	2849.13
473.253	2905.18
473.625	2957.38
473.997	3016.14
474.369	2975.01
474.74	3050.26
475.112	3130.71
475.484	3200.09
475.855	3215.68
476.227	3203.93
476.598	3367.54
476.97	3361.89
477.341	3433.75
477.713	3485.28
478.084	3520.3
478.455	3560.53
478.827	3667.19
479.198	3741.77
479.569	3776.79
479.94	3915.55
480.311	3893.4
480.682	4024.92
481.053	4097.69
481.424	4193.05
481.795	4243
482.166	4302.2
482.537	4368.19
482.908	4494.29
483.279	4565.25
483.65	4651.8
484.021	4722.76
484.391	4797.33
484.762	4870.78
485.133	4932.24
485.503	5049.75
485.874	5202.52
486.244	5244.1
486.615	5356.64
486.985	5477.77
487.356	5559.8
487.726	5678.44
488.097	5827.13
488.467	5951.43
488.837	6093.12
489.207	6128.37
489.578	6314.58
489.948	6407.01
490.318	6591.86
490.688	6581.01
491.058	6814.91
491.428	6959.99
491.798	7059.19
492.168	7220.54
492.538	7313.65
492.908	7459.63
493.278	7622.34
493.648	7719.06
494.017	7923.58
494.387	8122.44
494.757	8238.14
495.126	8441.98
495.496	8546.16
495.866	8743.89
496.235	8851.91
496.605	9124.68
496.974	9216.42
497.344	9419.81
497.713	9563.99
498.082	9764.66
498.452	9922.39
498.821	10155.16
499.19	10259.56
499.559	10497.75
499.928	10676.95
500.298	10850.28
500.667	11133.66
501.036	11218.86
501.405	11446.65
501.774	11626.53
502.143	11794.89
502.512	12028.55
502.88	12215.67
503.249	12435.1
503.618	12653.17
503.987	12785.37
504.356	13059.26
504.724	13226.04
505.093	13437.78
505.462	13684.56
505.83	13825.79
506.199	14125.9
506.567	14430.07
506.936	14600.46
507.304	14772.66
507.672	14988.7
508.041	15205.87
508.409	15450.16
508.777	15729.47
509.145	15903.03
509.514	16145.51
509.882	16291.94
510.25	16551.37
510.618	16735.77
510.986	16959.05
511.354	17133.5
511.722	17520.16
512.09	17695.3
512.458	17734.39
512.826	18017.55
513.193	18145.46
513.561	18329.86
513.929	18641.49
514.297	18916.96
514.664	19119.44
515.032	19243.96
515.4	19521.01
515.767	19677.39
516.135	19861.12
516.502	19791.74
516.869	20262.69
517.237	20441.89
517.604	20450.48
517.972	20717.14
518.339	21041.65
518.706	21038.71
519.073	21156.22
519.44	21539.04
519.808	21718.69
520.175	21771.8
520.542	22115.97
520.909	22359.13
521.276	22459.69
521.643	22711.66
522.009	22811.55
522.376	23101.03
522.743	23286.79
523.11	23569.27
523.477	23709.15
523.843	23913.89
524.21	24288.57
524.577	24356.14
524.943	24545.96
525.31	24750.25
525.676	25121.09
526.043	25140.53
526.409	25351.82
526.776	25596.11
527.142	25713.17
527.508	25963.55
527.874	26178.24
528.241	26280.61
528.607	26499.13
528.973	26820.71
529.339	26707.72
529.705	27039.91
530.071	27269.96
530.437	27381.6
530.803	27623.17
531.169	27717.63
531.535	27905.2
531.901	27935.03
532.267	28001.47
532.632	28221.57
532.998	28393.77
533.364	28521.68
533.73	28620.66
534.095	28791.95
534.461	28965.74
534.826	28977.03
535.192	29115.34
535.557	29275.11
535.923	29273.98
536.288	29448.66
536.653	29480.98
537.019	29504.7
537.384	29673.51
537.749	29770.46
538.114	29861.53
538.479	29797.35
538.845	30042.09
539.21	30038.02
539.575	29961.19
539.94	30217.68
540.305	30345.59
540.67	30349.2
541.034	30351.91
541.399	30411.12
541.764	30595.98
542.129	30615.41
542.494	30634.62
542.858	30836.65
543.223	30680.27
543.587	31004.33
543.952	30977.43
544.316	31014.72
544.681	30946.93
545.045	31110.54
545.41	31176.52
545.774	31139.46
546.138	31228.05
546.503	31398.21
546.867	31379.23
547.231	31463.97
547.595	31584.65
547.959	31678.21
548.324	31791.2
548.688	31648.83
549.052	31720.01
549.416	31848.37
549.779	31886.34
550.143	31987.13
550.507	31988.25
550.871	32122.94
551.235	32013.57
551.599	32311.64
551.962	32311.41
552.326	32519.99
552.689	32579.2
553.053	32327.68
553.417	32482.03
553.78	32946.2
554.143	32845.41
554.507	32791.85
554.87	32939.19
555.234	33207.43
555.597	33051.73
555.96	33096.02
556.323	33299.18
556.686	33337.6
557.05	33544.37
557.413	33392.06
557.776	33427.31
558.139	33865.49
558.502	33868.88
558.865	33853.52
559.228	34189.78
559.59	34151.81
559.953	34186.84
560.316	34440.17
560.679	34511.35
561.041	34442.2
561.404	34698.92
561.767	34925.8
562.129	34918.8
562.492	35196.31
562.854	35194.95
563.217	35184.78
563.579	35302.74
563.941	35455.96
564.304	35577.99
564.666	35818.66
565.028	35783.18
565.39	35906.8
565.753	36163.51
566.115	36077.19
566.477	36311.08
566.839	36490.06
567.201	36619.09
567.563	36643.27
567.925	36902.93
568.287	36852.99
568.648	36989.71
569.01	37129.59
569.372	37571.84
569.734	37352.86
570.095	37545.62
570.457	37888.21
570.819	37896.8
571.18	37794.66
571.542	38086.17
571.903	38088.89
572.265	38230.58
572.626	38341.53
572.987	38329.11
573.349	38444.58
573.71	38583.56
574.071	38796.66
574.432	38799.83
574.794	39084.57
575.155	39062.19
575.516	39048.63
575.877	39160.5
576.238	39253.15
576.599	39294.28
576.96	39268.52
577.32	39376.54
577.681	39478.68
578.042	39656.3
578.403	39506.93
578.763	39563.65
579.124	39473.48
579.485	39897.43
579.845	39738.79
580.206	39768.84
580.566	39789.41
580.927	39791.44
581.287	40014.71
581.648	39858.33
582.008	40026.01
582.368	39978.33
582.728	39893.58
583.089	39831.66
583.449	39880.48
583.809	39972.45
584.169	39980.81
584.529	39852.91
584.889	40058.33
585.249	40013.13
585.609	39823.3
585.969	40033.02
586.329	39855.17
586.688	40035.73
587.048	39928.39
587.408	39879.8
587.768	39918.89
588.127	39824.89
588.487	39802.51
588.846	40106.46
589.206	39762.29
589.565	39800.48
589.925	39859.46
590.284	39938.78
590.643	39836.41
591.003	39810.65
591.362	40041.83
591.721	39933.81
592.08	39788.5
592.44	40071.88
592.799	39965.67
593.158	39934.26
593.517	39880.48
593.876	40017.65
594.235	39875.51
594.593	39909.63
594.952	39971.32
595.311	39791.89
595.67	40016.07
596.029	40230.52
596.387	40132.9
596.746	40165.44
597.104	40031.43
597.463	40006.58
597.822	40264.2
598.18	40085.22
598.538	39865.11
598.897	40245.89
599.255	39967.03
599.613	40490.18
599.972	40121.6
600.33	40369.5
600.688	40159.79
601.046	40292.22
601.404	40477.98
601.762	40400.01
602.12	40548.26
602.478	40502.38
602.836	40570.18
603.194	40309.17
603.552	40482.04
603.91	40377.64
604.268	40534.02
604.625	40597.75
604.983	40780.79
605.341	40540.8
605.698	40744.18
606.056	40883.16
606.413	40771.98
606.771	40971.07
607.128	40891.98
607.485	40786.89
607.843	40821.7
608.2	41125.64
608.557	41271.4
608.914	41072.31
609.272	41260.55
609.629	41424.39
609.986	41318.18
610.343	41435.92
610.7	41766.98
611.057	41591.84
611.414	41555.24
611.771	41869.8
612.127	41735.34
612.484	41712.52
612.841	41839.07
613.198	41791.16
613.554	41704.84
613.911	42053.08
614.267	41947.32
614.624	42112.06
614.98	42119.06
615.337	42425.27
615.693	42317.47
616.05	42396.79
616.406	42503.01
616.762	42405.16
617.118	42531.25
617.475	42435.44
617.831	42525.15
618.187	42566.28
618.543	42650.35
618.899	42821.42
619.255	42761.98
619.611	42703.45
619.967	42904.58
620.323	43128.98
620.678	42969.89
621.034	42902.32
621.39	42890.34
621.746	42873.84
622.101	43346.6
622.457	42968.08
622.812	43220.73
623.168	43350.22
623.523	43200.16
623.879	43373.27
624.234	43085.59
624.589	43240.61
624.945	43325.81
625.3	43354.28
625.655	43313.15
626.01	43289.2
626.365	43367.84
626.72	43273.83
627.075	43162.42
627.43	43316.77
627.785	43295.3
628.14	43279.94
628.495	43317.22
628.85	43291.23
629.205	43184.12
629.559	43184.8
629.914	43055.76
630.269	43122.2
630.623	42915.43
630.978	42938.7
631.332	43169.43
631.687	43046.95
632.041	42953.84
632.396	43137.79
632.75	42927.4
633.104	42993.62
633.459	42784.81
633.813	42896.22
634.167	42736.22
634.521	42836.11
634.875	42865.26
635.229	42691.93
635.583	42481.99
635.937	42481.31
636.291	42540.52
636.645	42393.63
636.999	42408.55
637.352	42403.57
637.706	42141.43
638.06	42399.05
638.413	42352.95
638.767	42102.11
639.121	42226.63
639.474	42107.54
639.828	42097.82
640.181	41912.74
640.534	42005.17
640.888	41882.46
641.241	41670.94
641.594	41778.51
641.947	41861.44
642.301	41738.96
642.654	41671.16
643.007	41671.39
643.36	41773.76
643.713	41709.13
644.066	41698.51
644.419	41504.39
644.771	41098.3
645.124	40676.16
645.477	40703.28
645.83	40557.3
646.182	40602.49
646.535	40532.44
646.888	40497.41
647.24	40494.47
647.593	40589.16
647.945	40529.95
648.298	40387.13
648.65	40280.01
649.002	40065.1
649.355	39832.12
649.707	39919.8
650.059	39725.45
650.411	40293.57
650.763	40546.22
651.115	41100.56
651.467	41017.85
651.819	41059.88
652.171	40865.54
652.523	40810.17
652.875	40930.62
653.227	40773.56
653.578	40994.35
653.93	40762.04
654.282	40559.56
654.633	40675.94
654.985	40624.64
655.337	40820.57
655.688	40635.03
656.039	40810.17
656.391	40382.84
656.742	40628.48
657.094	40691.53
657.445	40727.23
657.796	40790.28
658.147	40565.88
658.498	40801.81
658.849	40676.84
659.2	40594.58
659.551	40605.43
659.902	40836.61
660.253	40648.82
660.604	40722.26
660.955	40500.12
661.306	40715.71
661.656	40661.7
662.007	40637.07
662.358	40665.99
662.708	40653.56
663.059	40592.77
663.409	40589.16
663.76	40800.23
664.11	40821.47
664.461	40812.43
664.811	40806.55
665.161	40765.2
665.511	40640.46
665.862	40736.73
666.212	40841.58
666.562	40897.63
666.912	40804.75
667.262	40715.26
667.612	40690.4
667.962	40720.91
668.312	40786.22
668.662	40846.78
669.011	40798.64
669.361	40704.64
669.711	40795.03
670.06	40649.04
670.41	40582.15
670.76	40567.69
671.109	40703.28
671.459	40760.91
671.808	40678.42
672.157	40730.4
672.507	40566.33
672.856	40473.46
673.205	40444.98
673.554	40607.24
673.904	40422.16
674.253	40772.88
674.602	40486.56
674.951	40046.8
675.3	39715.96
675.649	40496.05
675.998	40323.18
676.346	40445.21
676.695	40485.88
677.044	40346.91
677.393	40294.93
677.741	40343.06
678.09	40316.4
678.438	40133.8
678.787	40126.57
679.135	40168.38
679.484	39941.27
679.832	40193.91
680.181	39990.3
680.529	39991.21
680.877	39837.09
681.225	39808.61
681.573	40221.26
681.922	39820.37
682.27	39749.63
682.618	39616.08
682.966	39676.19
683.314	39577.43
683.661	39579.92
684.009	39278.01
684.357	39203.88
684.705	39087.73
685.053	39133.38
685.4	39055.41
685.748	39098.58
686.095	38974.74
686.443	38731.81
686.79	38713.95
687.138	38776.55
687.485	38714.63
687.832	38570
688.18	38511.02
688.527	38352.38
688.874	38340.86
689.221	38330.46
689.568	38055.67
689.915	37923.47
690.262	38042.56
690.609	37827.88
690.956	37718.95
691.303	37630.82
691.65	37440.09
691.997	37480.54
692.344	37429.69
692.69	37228.57
693.037	37242.35
693.383	36828.58
693.73	36927.11
694.077	36654.57
694.423	36748.13
694.769	36536.84
695.116	36493.67
695.462	36311.31
695.808	36157.18
696.155	36280.12
696.501	35938.21
696.847	36042.39
697.193	35717.87
697.539	35737.76
697.885	35564.88
698.231	35500.25
698.577	35387.94
698.923	35298.22
699.269	34976.42
699.614	34896.2
699.96	34796.09
700.306	34888.29
700.651	34601.75
700.997	34382.09
701.342	34358.14
701.688	34310.45
702.033	34163.34
702.379	34075.88
702.724	34006.51
703.069	33886.51
703.415	33648.1
703.76	33656.46
704.105	33599.06
704.45	33483.13
704.795	33380.99
705.14	33201.33
705.485	33203.14
705.83	32913.88
706.175	33116.13
706.52	32997.72
706.865	32774.45
707.209	32703.04
707.554	32547.56
707.899	32599.54
708.243	32461.01
708.588	32507.34
708.932	32104.18
709.277	32164.52
709.621	31960.01
709.966	31809.73
710.31	31911.42
710.654	31545.78
710.998	31776.74
711.342	31649.73
711.687	31522.05
712.031	31472.79
712.375	31336.52
712.719	31200.71
713.063	31311.21
713.407	31320.7
713.75	31184.66
714.094	31128.16
714.438	30997.55
714.782	31059.24
715.125	30762.75
715.469	31022.18
715.812	30748.06
716.156	30769.08
716.499	30787.61
716.843	30707.61
717.186	30452.7
717.53	30691.57
717.873	30712.58
718.216	30470.1
718.559	30449.09
718.902	30251.58
719.246	30334.97
719.589	30332.71
719.932	30234.85
720.275	30254.74
720.617	30235.08
720.96	30082.99
721.303	30183.1
721.646	30223.1
721.989	29993.96
722.331	30136.55
722.674	29981.08
723.016	29988.31
723.359	29809.33
723.701	29833.51
724.044	29760.29
724.386	29595.55
724.729	29765.26
725.071	29789.89
725.413	29875.99
725.755	29707.64
726.097	29709.44
726.439	29643.68
726.782	29568.21
727.124	29769.56
727.465	29602.1
727.807	29636.68
728.149	29564.14
728.491	29462.9
728.833	29720.29
729.175	29642.1
729.516	29534.76
729.858	29570.92
730.199	29591.93
730.541	29577.47
730.882	29445.27
731.224	29658.37
731.565	29379.06
731.906	29557.81
732.248	29517.59
732.589	29443.69
732.93	29497.47
733.271	29472.61
733.612	29278.5
733.953	29541.09
734.294	29432.39
734.635	29354.88
734.976	29426.29
735.317	29357.82
735.658	29397.59
735.999	29364.82
736.339	29380.64
736.68	29508.77
737.021	29387.87
737.361	29465.38
737.702	29540.64
738.042	29523.69
738.383	29494.08
738.723	29595.32
739.063	29553.29
739.404	29644.59
739.744	29520.52
740.084	29494.54
740.424	29642.1
740.764	29733.4
741.104	29821.53
741.444	29621.76
741.784	29573.18
742.124	29886.84
742.464	29815.43
742.804	29809.56
743.143	29711.25
743.483	29874.19
743.823	29896.11
744.162	29766.17
744.502	29917.12
744.841	29901.08
745.181	30088.19
745.52	30085.93
745.86	30194.86
746.199	30216.78
746.538	30253.16
746.877	30382.2
747.216	30371.12
747.556	30275.08
747.895	30491.8
748.234	30513.72
748.573	30667.16
748.911	30458.13
749.25	30665.35
749.589	30682.07
749.928	30861.96
750.267	30889.3
750.605	30932.92
750.944	30964.33
751.283	30949.19
751.621	31104.66
751.96	31126.13
752.298	31166.36
752.636	31217.65
752.975	31271.89
753.313	31292.91
753.651	31569.73
753.989	31397.31
754.327	31683.63
754.666	31555.27
755.004	31739.22
755.342	31760.46
755.679	31889.27
756.017	31705.78
756.355	31950.29
756.693	31904.64
757.031	32278.19
757.368	32032.1
757.706	32192.54
758.044	32156.61
758.381	32243.16
758.719	32119.78
759.056	32234.8
759.394	32276.38
759.731	32127.01
760.068	32378.98
760.405	32320
760.743	32306.21
761.08	32368.58
761.417	32290.62
761.754	32356.15
762.091	32464.85
762.428	32291.52
762.765	32370.84
763.102	32543.49
763.438	32410.16
763.775	32267.34
764.112	32377.62
764.449	32338.08
764.785	32421.92
765.122	32259.66
765.458	32247.46
765.795	32105.09
766.131	32327.46
766.467	32229.38
766.804	32134.24
767.14	32024.64
767.476	32091.98
767.812	32007.69
768.148	32164.52
768.485	31984.41
768.821	31764.31
769.157	31723.4
769.492	31759.33
769.828	31779.22
770.164	31590.98
770.5	31656.29
770.836	31494.71
771.171	31501.26
771.507	31447.48
771.842	31155.28
772.178	31205.22
772.513	31249.07
772.849	30953.25
773.184	30946.25
773.519	30843.65
773.855	30802.52
774.19	30775.63
774.525	30613.6
774.86	30601.85
775.195	30501.97
775.53	30460.61
775.865	30376.32
776.2	30206.61
776.535	30001.19
776.87	30048.64
777.205	29927.52
777.539	29747.64
777.874	29838.93
778.209	29453.63
778.543	29590.13
778.878	29429.45
779.212	29421.77
779.547	29200.31
779.881	29257.25
780.215	29030.82
780.55	29198.05
780.884	28911.05
781.218	28897.26
781.552	28922.57
781.886	28644.39
782.22	28700.43
782.554	28451.62
782.888	28186.32
783.222	28244.85
783.556	28009.15
783.889	28003.27
784.223	27880.11
784.557	27842.83
784.89	27934.8
785.224	27672.66
785.557	27526
785.891	27525.1
786.224	27569.61
786.558	27484.42
786.891	27206.01
787.224	27199.91
787.557	27084.66
787.891	27125.33
788.224	26952.68
788.557	26872.91
788.89	26849.86
789.223	26690.99
789.556	26598.57
789.888	26623.65
790.221	26486.93
790.554	26365.58
790.887	26316.31
791.219	26027.96
791.552	26144.57
791.884	25925.36
792.217	26017.34
792.549	25829.09
792.882	25606.73
793.214	25637.24
793.546	25574.19
793.879	25586.39
794.211	25292.16
794.543	25498.71
794.875	25349.79
795.207	25279.73
795.539	25233.4
795.871	25152.28
796.203	25121.54
796.535	24856.92
796.867	24846.52
797.198	24673.19
797.53	24671.84
797.862	24519.07
798.193	24573.53
798.525	24325.18
798.856	24489.02
799.188	24127.44
799.519	24134.9
799.85	24120.21
800.182	24033.89
800.513	24118.41
800.844	23841.35
801.175	23924.51
801.506	23816.72
801.837	23747.34
802.168	23790.05
802.499	23773.33
802.83	23614.46
803.161	23436.39
803.491	23437.75
803.822	23414.24
804.153	23234.13
804.483	23120.92
804.814	23104.42
805.145	23150.07
805.475	23200.24
805.805	23134.48
806.136	23031.65
806.466	22924.76
806.796	22801.38
807.126	22761.15
807.457	22714.15
807.787	22667.37
808.117	22602.06
808.447	22514.38
808.777	22593.25
809.107	22364.78
809.436	22331.56
809.766	22323.2
810.096	22325.01
810.426	22139.93
810.755	22235.74
811.085	22073.26
811.414	22147.61
811.744	22029.42
812.073	21921.18
812.403	21852.25
812.732	21731.35
813.061	21800.5
813.39	21646.15
813.719	21573.16
814.049	21830.56
814.378	21668.98
814.707	21421.08
815.036	21569.55
815.365	21429.21
815.693	21271.93
816.022	21228.99
816.351	21219.5
816.68	21024.02
817.008	21190.8
817.337	21008.43
817.665	20954.19
817.994	20967.08
818.322	21003.91
818.651	20910.35
818.979	20757.36
819.307	20924.14
819.636	20832.84
819.964	20762.79
820.292	20800.07
820.62	20737.25
820.948	20795.55
821.276	20860.86
821.604	20792.62
821.932	20861.32
822.259	20698.61
822.587	20678.72
822.915	20678.95
823.243	20788.55
823.57	20610.7
823.898	20770.92
824.225	20688.21
824.553	20716.01
824.88	20779.06
825.207	20800.98
825.535	20736.8
825.862	20692.96
826.189	20665.39
826.516	20914.2
826.843	20700.42
827.17	20807.31
827.497	20845.05
827.824	20782.22
828.151	20817.48
828.478	20756.46
828.805	20815.67
829.131	20768.21
829.458	20791.04
829.785	20725.5
830.111	20651.15
830.438	20878.26
830.764	20670.59
831.09	20713.07
831.417	20686.63
831.743	20791.94
832.069	20598.05
832.395	20691.83
832.722	20714.65
833.048	20629.91
833.374	20692.51
833.7	20658.84
834.026	20619.06
834.351	20636.01
834.677	20645.05
835.003	20639.17
835.329	20614.99
835.654	20573.19
835.98	20393.76
836.306	20646.86
836.631	20513.3
836.956	20657.03
837.282	20536.58
837.607	20394.66
837.932	20511.95
838.258	20385.17
838.583	20384.27
838.908	20389.01
839.233	20326.64
839.558	20181.56
839.883	20286.19
840.208	20160.32
840.533	20228.56
840.858	20146.76
841.182	20146.08
841.507	20188.57
841.832	20055.91
842.156	19988.12
842.481	20006.2
842.805	19816.6
843.13	19812.53
843.454	19834.9
843.778	19751.74
844.103	19774.34
844.427	19704.96
844.751	19637.39
845.075	19657.96
845.399	19573.44
845.723	19553.1
846.047	19555.36
846.371	19371.64
846.695	19444.86
847.019	19234.24
847.343	19219.1
847.666	19111.08
847.99	18950.86
848.313	18896.62
848.637	18897.98
848.96	18853.01
849.284	18844.65
849.607	18710.86
849.931	18652.11
850.254	18517.87
850.577	18320.14
850.9	18287.82
851.223	18360.14
851.546	18172.57
851.869	18072.46
852.192	18249.86
852.515	18043.08
852.838	17903.2
853.161	17921.05
853.483	17758.12
853.806	17766.71
854.129	17677.67
854.451	17689.42
854.774	17591.8
855.096	17602.42
855.419	17542.99
855.741	17440.39
856.063	17336.44
856.385	17395.42
856.708	17269.32
857.03	17244.69
857.352	17108.42
857.674	17119.49
857.996	17054.64
858.318	16924.02
858.64	16914.75
858.961	16821.65
859.283	16847.64
859.605	16783.23
859.926	16774.64
860.248	16721.31
860.57	16646.74
860.891	16687.19
861.212	16554.54
861.534	16536.23
861.855	16508.66
862.176	16584.37
862.498	16512.73
862.819	16505.95
863.14	16373.75
863.461	16371.04
863.782	16298.72
864.103	16334.66
864.424	16300.31
864.745	16230.03
865.065	16188.9
865.386	16125.4
865.707	16178.28
866.027	16114.32
866.348	16180.99
866.668	16062.57
866.989	16022.35
867.309	15901.9
867.63	15893.99
867.95	15991.84
868.27	15838.4
868.59	15844.5
868.91	15829.81
869.23	15799.98
869.55	15649.02
869.87	15781.9
870.19	15737.61
870.51	15679.98
870.83	15665.52
871.15	15600.89
871.469	15553.88
871.789	15592.08
872.109	15556.6
872.428	15484.06
872.748	15557.95
873.067	15437.5
873.386	15467.33
873.706	15439.31
874.025	15450.84
874.344	15412.87
874.663	15349.82
874.982	15360.44
875.301	15244.74
875.62	15281.8
875.939	15184.18
876.258	15312.76
876.577	15302.14
876.896	15201.58
877.214	15191.18
877.533	15148.47
877.852	15157.96
878.17	15216.27
878.489	15156.38
878.807	15138.08
879.125	15084.52
879.444	15022.83
879.762	14993
880.08	14994.8
880.398	14873.9
880.716	14982.6
881.034	14851.53
881.352	14913
881.67	14790.29
881.988	14808.82
882.306	14778.99
882.624	14808.59
882.941	14737.41
883.259	14676.62
883.577	14650.18
883.894	14519.34
884.212	14595.49
884.529	14562.95
884.846	14507.58
885.164	14405.44
885.481	14438.89
885.798	14504.65
886.115	14391.43
886.432	14398.66
886.75	14308.49
887.067	14350.75
887.383	14334.03
887.7	14335.16
888.017	14186.46
888.334	14136.52
888.651	14056.98
888.967	14149.18
889.284	14061.04
889.6	13943.98
889.917	13950.99
890.233	14036.18
890.55	13921.84
890.866	13875.74
891.182	13835.96
891.498	13792.35
891.815	13717.32
892.131	13695.4
892.447	13721.62
892.763	13661.96
893.079	13476.43
893.395	13662.64
893.71	13535.63
894.026	13443.88
894.342	13417.22
894.657	13324.11
894.973	13318.01
895.289	13352.13
895.604	13224
895.92	13160.28
896.235	13170.44
896.55	13145.59
896.865	13050
897.181	13073.27
897.496	13032.14
897.811	12885.03
898.126	12942.65
898.441	12869.21
898.756	12852.49
899.071	12763.22
899.386	12784.69
899.7	12686.16
900.015	12575.88
900.33	12491.82
900.644	12489.56
900.959	12488.88
901.273	12486.17
901.588	12442.33
901.902	12382.44
902.216	12269.68
902.531	12278.49
902.845	12284.59
903.159	12142.68
903.473	12125.27
903.787	11995.79
904.101	11963.24
904.415	12013.41
904.729	11936.58
905.042	11854.32
905.356	11874.43
905.67	11788.33
905.984	11858.39
906.297	11761.67
906.611	11726.41
906.924	11688.22
907.237	11682.57
907.551	11638.28
907.864	11594.21
908.177	11597.83
908.491	11448.23
908.804	11411.17
909.117	11301.57
909.43	11271.51
909.743	11245.3
910.056	11288.46
910.368	11159.65
910.681	11145.19
910.994	11118.07
911.307	10947.9
911.619	11012.76
911.932	10963.5
912.244	10844.86
912.557	10847.79
912.869	10766.89
913.181	10719.66
913.494	10826.1
913.806	10725.99
914.118	10616.39
914.43	10588.82
914.742	10561.25
915.054	10502.72
915.366	10535.26
915.678	10445.09
915.99	10374.81
916.302	10307.24
916.613	10259.79
916.925	10306.34
917.236	10258.66
917.548	10163.29
917.859	10189.28
918.171	10052.11
918.482	10011.21
918.794	10053.69
919.105	9973.69
919.416	9897.76
919.727	9910.42
920.038	9860.7
920.349	9694.83
920.66	9750.2
920.971	9729.86
921.282	9679.01
921.593	9653.02
921.903	9522.86
922.214	9545.91
922.525	9483.31
922.835	9431.79
923.146	9389.08
923.456	9386.59
923.767	9290.09
924.077	9267.5
924.387	9243.09
924.697	9241.51
925.008	9227.95
925.318	9192.47
925.628	9100.04
925.938	9149.53
926.248	9047.62
926.558	9003.32
926.867	8950.44
927.177	8885.81
927.487	8892.82
927.796	8840.84
928.106	8813.5
928.416	8848.75
928.725	8759.26
929.034	8681.3
929.344	8666.38
929.653	8685.82
929.962	8567.18
930.271	8629.1
930.581	8570.57
930.89	8510.23
931.199	8435.43
931.508	8381.64
931.817	8397.46
932.125	8346.62
932.434	8302.78
932.743	8178.71
933.051	8242.44
933.36	8254.87
933.669	8128.09
933.977	8157.24
934.286	8106.4
934.594	8056.23
934.902	8037.47
935.21	7973.52
935.519	7969.45
935.827	7969.45
936.135	7892.17
936.443	7822.56
936.751	7793.64
937.059	7828.44
937.367	7729.68
937.674	7731.04
937.982	7679.29
938.29	7721.55
938.597	7678.84
938.905	7576.24
939.213	7583.47
939.52	7584.6
939.827	7526.07
940.135	7445.85
940.442	7410.14
940.749	7361.56
941.056	7405.85
941.363	7343.25
941.67	7283.59
941.977	7278.17
942.284	7222.13
942.591	7202.01
942.898	7167.44
943.205	7157.5
943.511	7113.2
943.818	7076.59
944.125	7043.37
944.431	7000.44
944.738	7041.79
945.044	6927.44
945.35	6892.87
945.657	6908.46
945.963	6852.64
946.269	6800.22
946.575	6821.69
946.881	6770.39
947.187	6760.67
947.493	6628.24
947.799	6690.39
948.105	6643.16
948.41	6570.62
948.716	6550.73
949.022	6631.41
949.327	6551.18
949.633	6458.76
949.938	6470.96
950.244	6515.93
950.549	6415.82
950.854	6343.73
951.16	6369.49
951.465	6295.15
951.77	6258.31
952.075	6258.08
952.38	6242.27
952.685	6248.82
952.99	6139.67
953.294	6150.52
953.599	6138.77
953.904	6105.55
954.209	6024.87
954.513	6091.31
954.818	6018.09
955.122	6020.58
955.426	6005.44
955.731	5981.48
956.035	5915.49
956.339	5876.85
956.643	5891.54
956.948	5820.58
957.252	5859
957.556	5793.24
957.86	5762.28
958.163	5783.52
958.467	5703.52
958.771	5707.36
959.075	5718.44
959.378	5657.42
959.682	5654.26
959.985	5596.86
960.289	5545.11
960.592	5502.17
960.896	5547.14
961.199	5530.42
961.502	5517.99
961.805	5437.09
962.108	5414.72
962.411	5416.98
962.714	5331.33
963.017	5341.27
963.32	5341.95
963.623	5358.22
963.926	5280.71
964.228	5263.53
964.531	5258.34
964.833	5234.83
965.136	5201.61
965.438	5165.46
965.741	5193.25
966.043	5093.82
966.345	5062.86
966.648	5094.27
966.95	5088.17
967.252	5059.7
967.554	5000.26
967.856	4972.92
968.158	4958.23
968.46	4958.01
968.761	4935.18
969.063	4960.72
969.365	4889.08
969.666	4899.7
969.968	4830.78
970.269	4804.34
970.571	4834.39
970.872	4798.91
971.174	4723.66
971.475	4731.12
971.776	4726.82
972.077	4664.68
972.378	4673.49
972.679	4675.98
972.98	4692.02
973.281	4650.89
973.582	4589.2
973.883	4658.58
974.183	4568.18
974.484	4513.95
974.785	4491.12
975.085	4460.39
975.386	4524.57
975.686	4440.96
975.986	4420.17
976.287	4419.71
976.587	4377.68
976.887	4371.35
977.187	4374.07
977.487	4398.92
977.787	4341.98
978.087	4304.46
978.387	4290.45
978.687	4275.54
978.987	4263.79
979.286	4210.91
979.586	4220.4
979.885	4155.99
980.185	4150.12
980.484	4106.73
980.784	4070.12
981.083	4089.33
981.382	4055.43
981.682	4096.11
981.981	4050.46
982.28	4045.26
982.579	3986.51
982.878	4013.17
983.177	3982.44
983.475	3988.77
983.774	3941.76
984.073	3876.68
984.372	3871.71
984.67	3884.81
984.969	3866.73
985.267	3879.84
985.566	3831.48
985.864	3822.89
986.162	3831.48
986.461	3778.83
986.759	3777.92
987.057	3717.81
987.355	3708.09
987.653	3700.19
987.951	3710.13
988.249	3696.57
988.547	3640.75
988.844	3598.49
989.142	3590.81
989.44	3626.06
989.737	3555.78
990.035	3584.26
990.332	3557.59
990.63	3546.29
990.927	3526.4
991.224	3506.97
991.521	3492.51
991.819	3530.02
992.116	3427.42
992.413	3422
992.71	3427.42
993.006	3379.29
993.303	3428.55
993.6	3344.49
993.897	3375.22
994.193	3337.93
994.49	3345.62
994.787	3330.03
995.083	3290.25
995.379	3271.5
995.676	3238.05
995.972	3226.07
996.268	3184.94
996.565	3173.19
996.861	3147.43
997.157	3145.85
997.453	3190.14
997.749	3162.57
998.044	3131.84
998.34	3115.57
998.636	3115.12
998.932	3131.39
999.227	3110.6
999.523	3038.06
999.818	3013.2
1000.114	3009.13
1000.409	3007.55
1000.704	2980.2
1001	2969.36
1001.295	2945.18
1001.59	2909.7
1001.885	2905.4
1002.18	2873.09
1002.475	2868.79
1002.77	2864.05
1003.065	2854.11
1003.359	2836.25
1003.654	2825.63
1003.949	2799.42
1004.243	2799.42
1004.538	2783.37
1004.832	2739.08
1005.127	2784.28
1005.421	2715.58
1005.715	2697.5
1006.009	2703.6
1006.304	2677.39
1006.598	2678.74
1006.892	2638.52
1007.186	2656.37
1007.48	2630.16
1007.773	2598.97
1008.067	2603.94
1008.361	2595.58
1008.655	2557.16
1008.948	2541.8
1009.242	2536.83
1009.535	2524.85
1009.829	2527.11
1010.122	2469.71
1010.415	2469.71
1010.708	2430.61
1011.001	2444.17
1011.295	2452.31
1011.588	2418.86
1011.881	2391.52
1012.173	2364.4
1012.466	2335.25
1012.759	2354.23
1013.052	2360.56
1013.344	2314.68
1013.637	2293.67
1013.93	2309.04
1014.222	2264.29
1014.514	2250.96
1014.807	2231.3
1015.099	2215.03
1015.391	2208.25
1015.683	2170.96
1015.976	2189.72
1016.268	2153.11
1016.56	2169.83
1016.851	2165.99
1017.143	2155.82
1017.435	2137.29
1017.727	2080.34
1018.018	2115.82
1018.31	2085.31
1018.602	2055.03
1018.893	2054.8
1019.185	2046.44
1019.476	2039.21
1019.767	2008.48
1020.058	1988.37
1020.35	1999.21
1020.641	1958.76
1020.932	1969.16
1021.223	1960.8
1021.514	1888.03
1021.804	1920.34
1022.095	1901.36
1022.386	1881.25
1022.677	1879.44
1022.967	1831.76
1023.258	1825.43
1023.548	1868.59
1023.839	1871.76
1024.129	1824.08
1024.419	1807.35
1024.709	1778.65
1025	1772.33
1025.29	1771.87
1025.58	1737.98
1025.87	1755.6
1026.16	1716.51
1026.449	1697.98
1026.739	1680.35
1027.029	1704.53
1027.319	1702.05
1027.608	1670.63
1027.898	1677.64
1028.187	1640.35
1028.477	1654.14
1028.766	1638.54
1029.055	1627.02
1029.344	1617.3
1029.634	1592.22
1029.923	1615.95
1030.212	1575.04
1030.501	1546.34
1030.79	1572.78
1031.078	1559.9
1031.367	1497.76
1031.656	1506.34
1031.945	1500.7
1032.233	1506.57
1032.522	1482.84
1032.81	1486.46
1033.099	1464.31
1033.387	1470.19
1033.675	1457.76
1033.963	1429.96
1034.251	1430.87
1034.54	1413.69
1034.828	1385.67
1035.116	1377.53
1035.403	1389.74
1035.691	1367.14
1035.979	1385.22
1036.267	1346.35
1036.554	1338.21
1036.842	1359
1037.129	1342.28
1037.417	1341.38
1037.704	1315.16
1037.992	1300.02
1038.279	1272.9
1038.566	1269.97
1038.853	1269.97
1039.14	1269.97
