Data from 583_FLMS001491_004.txt Node
Date: Thu Apr 19 15:43:23 BST 2018
User: hsy
Spectrometer: FLMS00149
Trigger mode: 0
Integration Time (sec): 1.000000E-2
Scans to average: 10
Electric dark correction enabled: true
Nonlinearity correction enabled: false
Boxcar width: 0
XAxis mode: Wavelengths
Number of Pixels in Spectrum: 2048
>>>>>Begin Spectral Data<<<<<
341.393	-28.69
341.776	-28.69
342.16	-28.69
342.543	-47.89
342.927	-77.27
343.31	-68.46
343.693	-50.15
344.077	-66.2
344.46	-60.78
344.843	-52.87
345.226	-31.62
345.61	-39.08
345.993	-27.78
346.376	-15.13
346.759	21.48
347.142	23.74
347.525	37.75
347.908	56.28
348.291	72.55
348.674	83.63
349.057	116.62
349.44	127.47
349.823	126.56
350.206	169.05
350.588	213.57
350.971	227.35
351.354	260.12
351.737	283.4
352.119	277.75
352.502	283.4
352.884	321.59
353.267	327.01
353.65	323.62
354.032	329.72
354.414	347.12
354.797	345.32
355.179	351.87
355.562	364.07
355.944	364.98
356.326	364.07
356.709	369.04
357.091	375.6
357.473	389.16
357.855	365.65
358.238	374.47
358.62	381.25
359.002	367.01
359.384	374.92
359.766	377.86
360.148	397.29
360.53	384.18
360.912	377.86
361.294	382.38
361.676	383.05
362.057	389.38
362.439	384.86
362.821	353.9
363.203	362.26
363.584	387.57
363.966	371.98
364.348	382.38
364.729	358.65
365.111	341.02
365.493	365.2
365.874	366.56
366.256	375.6
366.637	352.55
367.019	371.08
367.4	360.46
367.781	369.95
368.163	358.42
368.544	355.94
368.925	372.89
369.306	379.44
369.688	371.76
370.069	369.72
370.45	365.2
370.831	376.05
371.212	401.36
371.593	355.49
371.974	375.82
372.355	379.89
372.736	386.9
373.117	376.73
373.498	347.12
373.879	374.47
374.26	370.17
374.641	362.94
375.021	380.8
375.402	393.9
375.783	416.73
376.163	399.1
376.544	407.46
376.925	394.35
377.305	409.04
377.686	396.84
378.066	411.08
378.447	409.72
378.827	401.81
379.208	402.72
379.588	405.65
379.968	404.07
380.349	395.48
380.729	414.92
381.109	414.47
381.489	400.68
381.87	406.78
382.25	418.53
382.63	432.55
383.01	453.56
383.39	423.28
383.77	406.78
384.15	420.12
384.53	437.06
384.91	452.21
385.29	427.57
385.67	445.43
386.049	483.62
386.429	457.18
386.809	449.27
387.189	449.04
387.568	442.04
387.948	454.47
388.328	475.71
388.707	468.93
389.087	471.41
389.466	466.22
389.846	453.79
390.225	483.39
390.605	487.91
390.984	487.23
391.363	492.66
391.743	512.54
392.122	491.53
392.501	500.57
392.881	502.6
393.26	514.8
393.639	514.35
394.018	492.2
394.397	531.98
394.776	515.71
395.155	513.45
395.534	507.57
395.913	500.34
396.292	515.25
396.671	526.78
397.05	527.01
397.429	517.51
397.808	532.2
398.186	546.44
398.565	547.34
398.944	543.05
399.323	544.86
399.701	553.67
400.08	556.84
400.458	556.84
400.837	573.11
401.215	554.35
401.594	572.65
401.972	569.94
402.351	575.14
402.729	598.19
403.107	562.03
403.486	550.28
403.864	589.6
404.242	586.89
404.62	594.57
404.999	592.99
405.377	605.42
405.755	610.39
406.133	637.96
406.511	637.06
406.889	632.09
407.267	636.61
407.645	635.93
408.023	637.96
408.401	627.34
408.779	656.27
409.156	631.18
409.534	657.17
409.912	675.02
410.29	709.37
410.667	691.75
411.045	724.06
411.422	711.86
411.8	685.42
412.178	723.38
412.555	711.63
412.933	727
413.31	750.28
413.687	741.92
414.065	743.72
414.442	781.91
414.819	760.45
415.197	771.29
415.574	781.69
415.951	783.72
416.328	795.25
416.705	791.41
417.082	811.07
417.46	797.51
417.837	804.74
418.214	812.2
418.591	799.32
418.967	813.55
419.344	807.68
419.721	856.94
420.098	844.06
420.475	847.9
420.852	854.23
421.228	846.77
421.605	873.21
421.982	859.88
422.358	864.85
422.735	871.18
423.111	872.99
423.488	919.99
423.864	889.03
424.241	914.34
424.617	909.14
424.994	884.96
425.37	921.57
425.746	924.96
426.123	937.39
426.499	947.33
426.875	978.29
427.251	988.46
427.627	994.11
428.003	1002.02
428.379	982.59
428.756	995.02
429.132	1020.33
429.507	1038.4
429.883	1044.28
430.259	1085.18
430.635	1060.55
431.011	1068.91
431.387	1083.15
431.763	1077.27
432.138	1119.53
432.514	1121.79
432.89	1150.94
433.265	1145.97
433.641	1173.54
434.016	1162.24
434.392	1194.78
434.767	1187.55
435.143	1192.07
435.518	1191.17
435.894	1213.99
436.269	1246.99
436.644	1240.43
437.02	1276.14
437.395	1220.32
437.77	1275.91
438.145	1291.51
438.52	1308
438.895	1303.71
439.271	1309.81
439.646	1348.23
440.021	1352.97
440.395	1349.36
440.77	1322.92
441.145	1337.15
441.52	1367.66
441.895	1397.94
442.27	1371.96
442.645	1386.42
443.019	1406.76
443.394	1421.22
443.769	1424.38
444.143	1440.43
444.518	1443.14
444.892	1393.65
445.267	1416.93
445.641	1420.32
446.016	1451.28
446.39	1457.38
446.764	1464.61
447.139	1472.52
447.513	1480.2
447.887	1503.03
448.262	1517.04
448.636	1550.26
449.01	1556.81
449.384	1534.21
449.758	1539.86
450.132	1583.02
450.506	1592.51
450.88	1623.47
451.254	1609.92
451.628	1613.76
452.002	1643.13
452.376	1678.61
452.75	1722.45
453.123	1653.53
453.497	1714.09
453.871	1733.3
454.244	1795.22
454.618	1785.73
454.992	1777.82
455.365	1816.69
455.739	1848.55
456.112	1844.26
456.486	1870.7
456.859	1913.41
457.232	1906.18
457.606	1966.29
457.979	1978.49
458.352	1993.86
458.725	1988.89
459.099	2019.62
459.472	2060.07
459.845	2085.16
460.218	2131.94
460.591	2124.03
460.964	2157.7
461.337	2179.17
461.71	2219.16
462.083	2242.89
462.456	2233.18
462.829	2238.6
463.201	2316.34
463.574	2306.85
463.947	2333.74
464.32	2411.48
464.692	2408.54
465.065	2413.06
465.438	2466.16
465.81	2472.27
466.183	2486.95
466.555	2491.93
466.928	2567.4
467.3	2599.95
467.672	2621.87
468.045	2667.74
468.417	2667.06
468.789	2684.24
469.161	2748.42
469.534	2770.56
469.906	2795.42
470.278	2803.56
470.65	2887.17
471.022	2922.65
471.394	2934.17
471.766	2981.86
472.138	3032.25
472.51	3121.74
472.882	3126.49
473.253	3183.66
473.625	3234.96
473.997	3253.04
474.369	3337.78
474.74	3342.07
475.112	3411
475.484	3426.59
475.855	3541.16
476.227	3595.17
476.598	3643.76
476.97	3682.4
477.341	3759.46
477.713	3830.65
478.084	3841.5
478.455	3978.89
478.827	3999.68
479.198	4116.06
479.569	4140.7
479.94	4249.39
480.311	4326.68
480.682	4433.57
481.053	4495.49
481.424	4523.51
481.795	4646.67
482.166	4673.56
482.537	4815.93
482.908	4904.97
483.279	4968.02
483.65	5073.78
484.021	5167.34
484.391	5303.83
484.762	5343.15
485.133	5431.74
485.503	5513.09
485.874	5654.1
486.244	5775.91
486.615	5844.83
486.985	6036.69
487.356	6161.21
487.726	6228.32
488.097	6399.85
488.467	6465.61
488.837	6648.2
489.207	6759.61
489.578	6864.47
489.948	7003.67
490.318	7148.98
490.688	7292.25
491.058	7498.57
491.428	7585.8
491.798	7686.14
492.168	7940.6
492.538	8087.71
492.908	8191.66
493.278	8392.79
493.648	8503.97
494.017	8677.98
494.387	8818.31
494.757	8971.76
495.126	9168.59
495.496	9347.11
495.866	9531.06
496.235	9668.91
496.605	9820.32
496.974	10086.3
497.344	10253.53
497.713	10421.89
498.082	10604.93
498.452	10773.97
498.821	10958.82
499.19	11195.43
499.559	11440.17
499.928	11609.65
500.298	11770.78
500.667	12004.22
501.036	12150.66
501.405	12391.55
501.774	12610.08
502.143	12825.21
502.512	13078.54
502.88	13386.55
503.249	13492.09
503.618	13682.14
503.987	13870.84
504.356	14175.69
504.724	14391.27
505.093	14589.01
505.462	14810.02
505.83	15007.3
506.199	15249.78
506.567	15607.29
506.936	15841.63
507.304	16074.17
507.672	16264.22
508.041	16416.53
508.409	16761.38
508.777	16986.01
509.145	17352.55
509.514	17435.94
509.882	17745.99
510.25	17875.7
510.618	18085.19
510.986	18315.69
511.354	18562.24
511.722	18819.41
512.09	19095.56
512.458	19124.03
512.826	19492.61
513.193	19636.33
513.561	19911.35
513.929	20109.54
514.297	20455.75
514.664	20621.17
515.032	20814.16
515.4	21050.08
515.767	21174.6
516.135	21407.13
516.502	21482.84
516.869	21855.48
517.237	22063.39
517.604	21997.18
517.972	22502.02
518.339	22624.96
518.706	22901.56
519.073	22984.72
519.44	23211.83
519.808	23504.93
520.175	23670.35
520.542	23969.33
520.909	24069.89
521.276	24193.28
521.643	24586.71
522.009	24716.43
522.376	24884.56
522.743	25082.74
523.11	25524.54
523.477	25743.29
523.843	25741.26
524.21	26204.75
524.577	26505.53
524.943	26582.82
525.31	26774.23
525.676	27110.94
526.043	27231.39
526.409	27498.5
526.776	27671.83
527.142	27932.16
527.508	28018.26
527.874	28278.37
528.241	28449.21
528.607	28608.75
528.973	29038.12
529.339	28873.15
529.705	29356.3
530.071	29507.03
530.437	29741.6
530.803	29894.37
531.169	30046.46
531.535	30147.7
531.901	30254.81
532.267	30491.64
532.632	30758.08
532.998	30859.99
533.364	31054.34
533.73	30970.5
534.095	31410.94
534.461	31318.06
534.826	31487.77
535.192	31422.46
535.557	31856.13
535.923	31741.78
536.288	31968.21
536.653	32138.83
537.019	32010.7
537.384	32308.09
537.749	32184.25
538.114	32328.2
538.479	32414.08
538.845	32660.85
539.21	32554.19
539.575	32637.35
539.94	32612.94
540.305	32812.94
540.67	32953.27
541.034	32978.81
541.399	33021.29
541.764	33169.99
542.129	33139.26
542.494	33215.41
542.858	33376.76
543.223	33386.71
543.587	33548.51
543.952	33457.89
544.316	33603.65
544.681	33556.65
545.045	33804.55
545.41	33877.77
545.774	33805.68
546.138	33827.37
546.503	33889.29
546.867	33991.89
547.231	34234.37
547.595	34262.84
547.959	34211.77
548.324	34229.62
548.688	34379.45
549.052	34442.5
549.416	34292.22
549.779	34524.3
550.143	34594.13
550.507	34775.6
550.871	34863.73
551.235	34845.65
551.599	35135.59
551.962	35076.15
552.326	35113.44
552.689	35138.75
553.053	35066.89
553.417	35248.35
553.78	35517.05
554.143	35374
554.507	35581.9
554.87	35705.97
555.234	36032.51
555.597	35618.06
555.96	36003.59
556.323	35894.66
556.686	36000.65
557.05	36299.17
557.413	36305.05
557.776	36366.97
558.139	36588.88
558.502	36566.74
558.865	36789.78
559.228	36929.21
559.59	36985.26
559.953	37009.89
560.316	37238.81
560.679	37262.99
561.041	37608.97
561.404	37757.21
561.767	37984.33
562.129	37802.41
562.492	38136.19
562.854	37993.37
563.217	38080.59
563.579	38356.75
563.941	38569.4
564.304	38542.05
564.666	38945.43
565.028	38838.54
565.39	39030.17
565.753	39308.81
566.115	39228.14
566.477	39331.18
566.839	39485.98
567.201	39665.64
567.563	39635.81
567.925	39919.64
568.287	39996.93
568.648	40104.72
569.01	40262.46
569.372	40652.73
569.734	40538.84
570.095	40788.77
570.457	40988.77
570.819	40830.8
571.18	40962.55
571.542	41151.7
571.903	41216.11
572.265	41233.05
572.626	41550.56
572.987	41652.25
573.349	41802.08
573.71	41845.02
574.071	41934.5
574.432	42123.88
574.794	42357.09
575.155	42310.09
575.516	42214.72
575.877	42413.81
576.238	42437.54
576.599	42395.28
576.96	42606.35
577.32	42546.47
577.681	42685.9
578.042	42945.78
578.403	42766.8
578.763	42909.85
579.124	42917.3
579.485	43010.86
579.845	43235.49
580.206	43067.81
580.566	43150.07
580.927	43143.06
581.287	43248.37
581.648	43166.34
582.008	43400.91
582.368	43354.13
582.728	43285.43
583.089	43374.92
583.449	43345.99
583.809	43410.4
584.169	43490.17
584.529	43181.7
584.889	43585.08
585.249	43350.06
585.609	43222.61
585.969	43454.92
586.329	43223.28
586.688	43357.07
587.048	43199.1
587.408	43160.69
587.768	43230.52
588.127	43216.28
588.487	43183.74
588.846	43503.05
589.206	43211.99
589.565	43089.73
589.925	43392.32
590.284	43218.09
590.643	43259.89
591.003	43458.31
591.362	43463.5
591.721	43384.18
592.08	43344.19
592.44	43390.96
592.799	43234.58
593.158	43268.25
593.517	43122.04
593.876	43267.35
594.235	43165.43
594.593	43156.85
594.952	43261.02
595.311	43151.87
595.67	43210.86
596.029	43303.06
596.387	43401.58
596.746	43534.91
597.104	43251.31
597.463	43301.25
597.822	43452.2
598.18	43395.03
598.538	43404.97
598.897	43655.59
599.255	43417.4
599.613	43771.74
599.972	43490.85
600.33	43695.59
600.688	43491.07
601.046	43517.29
601.404	43819.65
601.762	43636.83
602.12	43814
602.478	43851.74
602.836	43837.73
603.194	43486.55
603.552	43714.12
603.91	43792.08
604.268	43964.51
604.625	43699.88
604.983	43920.22
605.341	43748.69
605.698	44065.52
606.056	44317.72
606.413	44066.65
606.771	44232.3
607.128	44266.42
607.485	44075.24
607.843	44196.37
608.2	44309.81
608.557	44450.6
608.914	44449.01
609.272	44491.05
609.629	44790.25
609.986	44912.73
610.343	44748.44
610.7	44949.79
611.057	44914.54
611.414	44875.67
611.771	44978.49
612.127	44931.26
612.484	44949.34
612.841	45160.86
613.198	45114.31
613.554	45169.67
613.911	45383.68
614.267	45434.75
614.624	45310.69
614.98	45423
615.337	45670.9
615.693	45607.4
616.05	45715.2
616.406	45915.64
616.762	45721.07
617.118	45786.15
617.475	45707.74
617.831	45893.27
618.187	45955.87
618.543	45921.74
618.899	46271.11
619.255	46022.76
619.611	46088.29
619.967	46246.26
620.323	46314.05
620.678	46242.87
621.034	46149.99
621.39	46134.39
621.746	46143.66
622.101	46489.41
622.457	46235.41
622.812	46506.14
623.168	46495.06
623.523	46354.05
623.879	46599.47
624.234	46385.69
624.589	46611.22
624.945	46456.42
625.3	46585.23
625.655	46619.58
626.01	46716.98
626.365	46564.67
626.72	46541.39
627.075	46507.04
627.43	46513.14
627.785	46568.06
628.14	46521.73
628.495	46594.72
628.85	46682.85
629.205	46569.19
629.559	46630.2
629.914	46465.01
630.269	46520.82
630.623	46280.15
630.978	46260.04
631.332	46345.91
631.687	46399.7
632.041	46328.51
632.396	46371.45
632.75	46199.48
633.104	46231.11
633.459	46018.24
633.813	46234.73
634.167	46102.76
634.521	46166.26
634.875	46108.63
635.229	46053.27
635.583	45881.52
635.937	45848.3
636.291	45827.06
636.645	45832.26
636.999	45576.44
637.352	45750.68
637.706	45564.24
638.06	45629.32
638.413	45603.33
638.767	45366.5
639.121	45466.16
639.474	45368.31
639.828	45355.66
640.181	45375.54
640.534	45504.58
640.888	45187.98
641.241	45035.21
641.594	45065.72
641.947	45243.8
642.301	44932.62
642.654	44981.66
643.007	44915.9
643.36	45049.9
643.713	44905.73
644.066	45135.55
644.419	44884.48
644.771	44348.23
645.124	43979.2
645.477	44045.64
645.83	43802.93
646.182	43833.66
646.535	43792.76
646.888	43817.85
647.24	43692.2
647.593	43941.23
647.945	43777.85
648.298	43667.57
648.65	43486.1
649.002	43119.56
649.355	43154.81
649.707	43072.33
650.059	43030.97
650.411	43676.83
650.763	43819.43
651.115	44421.44
651.467	44268
651.819	44227.33
652.171	44145.97
652.523	44148.46
652.875	44125.86
653.227	43919.09
653.578	44204.5
653.93	44127.44
654.282	43894.45
654.633	44067.78
654.985	43978.29
655.337	44061.23
655.688	43991.17
656.039	44090.15
656.391	43757.73
656.742	43724.97
657.094	43754.8
657.445	43928.8
657.796	44041.57
658.147	43908.69
658.498	43868.01
658.849	43990.27
659.2	43760.9
659.551	43804.51
659.902	43935.13
660.253	43768.81
660.604	43869.14
660.955	43677.74
661.306	43912.31
661.656	43821.69
662.007	43825.75
662.358	43892.19
662.708	43986.88
663.059	43912.76
663.409	43741.24
663.76	43954.11
664.11	43971.74
664.461	44094.9
664.811	44041.57
665.161	43969.93
665.511	43875.92
665.862	44062.58
666.212	44097.84
666.562	44062.13
666.912	44182.58
667.262	43872.31
667.612	43921.35
667.962	43972.64
668.312	43836.38
668.662	44185.97
669.011	44099.65
669.361	44039.76
669.711	44110.49
670.06	43879.09
670.41	43917.05
670.76	43878.63
671.109	43982.81
671.459	44025.98
671.808	43878.63
672.157	44079.31
672.507	43748.47
672.856	43716.6
673.205	43764.74
673.554	43830.73
673.904	43583.27
674.253	43927.67
674.602	43705.53
674.951	43064.87
675.3	43040.24
675.649	43688.36
675.998	43704.63
676.346	43531.98
676.695	43633.9
677.044	43497.4
677.393	43624.86
677.741	43515.48
678.09	43532.88
678.438	43352.77
678.787	43499.89
679.135	43529.94
679.484	43171.08
679.832	43404.07
680.181	43203.17
680.529	43301.47
680.877	43061.71
681.225	43082.95
681.573	43382.6
681.922	42984.65
682.27	42860.13
682.618	42941.03
682.966	42665.56
683.314	42705.56
683.661	42729.29
684.009	42473.25
684.357	42390.31
684.705	42332.46
685.053	42376.75
685.4	42299.69
685.748	42153.03
686.095	42134.73
686.443	41930.21
686.79	41929.76
687.138	41996.88
687.485	41923.66
687.832	41570.67
688.18	41633.27
688.527	41471.92
688.874	41328.42
689.221	41400.51
689.568	41179.95
689.915	41075.77
690.262	41114.19
690.609	40904.93
690.956	40632.84
691.303	40716.23
691.65	40558.95
691.997	40430.59
692.344	40297.49
692.69	40282.34
693.037	40278.73
693.383	39877.61
693.73	39885.52
694.077	39901.34
694.423	39818.85
694.769	39608.69
695.116	39394.68
695.462	39427.23
695.808	39100.45
696.155	39397.85
696.501	38929.84
696.847	38775.27
697.193	38813.68
697.539	38635.16
697.885	38480.36
698.231	38338.44
698.577	38204.43
698.923	38198.33
699.269	37875.63
699.614	37735.97
699.96	37639.7
700.306	37745.69
700.651	37533.72
700.997	37335.3
701.342	37249.88
701.688	37141.86
702.033	36884.24
702.379	36857.8
702.724	36839.5
703.069	36900.74
703.415	36381.43
703.76	36414.65
704.105	36369.68
704.45	36234.54
704.795	36176.69
705.14	35864.16
705.485	36051.5
705.83	35710.71
706.175	35740.77
706.52	35494.9
706.865	35424.39
707.209	35321.57
707.554	35306.88
707.899	35265.98
708.243	35120.45
708.588	35011.52
708.932	34708.48
709.277	34970.17
709.621	34617.18
709.966	34517.07
710.31	34720.68
710.654	34348.94
710.998	34497.41
711.342	34529.5
711.687	34256.06
712.031	34051.32
712.375	34000.48
712.719	34042.06
713.063	34048.16
713.407	34143.07
713.75	33854.72
714.094	33869.86
714.438	33696.76
714.782	33787.15
715.125	33525.69
715.469	33756.41
715.812	33377.89
716.156	33379.48
716.499	33341.06
716.843	33388.06
717.186	33183.77
717.53	33364.56
717.873	33287.95
718.216	33297.22
718.559	33228.97
718.902	32909.66
719.246	32967.73
719.589	32891.58
719.932	32660.85
720.275	32697.01
720.617	32787.17
720.96	32795.99
721.303	32725.03
721.646	32927.06
721.989	32623.34
722.331	32708.76
722.674	32484.13
723.016	32573.39
723.359	32490.01
723.701	32474.19
724.044	32451.36
724.386	32168.21
724.729	32442.78
725.071	32490.23
725.413	32359.84
725.755	32361.88
726.097	32150.36
726.439	32181.99
726.782	32252.05
727.124	32352.16
727.465	32112.62
727.807	32088.44
728.149	32076.68
728.491	31927.99
728.833	32133.63
729.175	32109.45
729.516	32139.51
729.858	32003.47
730.199	32158.94
730.541	32246.4
730.882	31890.02
731.224	32013.86
731.565	31956.46
731.906	32088.44
732.248	32004.6
732.589	31964.6
732.93	31812.74
733.271	31891.83
733.612	31909.46
733.953	31967.99
734.294	31887.76
734.635	31881.21
734.976	32082.33
735.317	31815
735.658	31789.01
735.999	31807.54
736.339	31766.64
736.68	31913.3
737.021	31851.15
737.361	31840.31
737.702	32048.44
738.042	31987.42
738.383	31934.77
738.723	31976.35
739.063	31856.35
739.404	32214.99
739.744	32015.9
740.084	32156.68
740.424	32147.64
740.764	31972.51
741.104	32381.76
741.444	32179.51
741.784	32156.68
742.124	32233.29
742.464	32309.45
742.804	32247.98
743.143	32358.26
743.483	32447.75
743.823	32228.09
744.162	32376.34
744.502	32495.43
744.841	32420.18
745.181	32641.19
745.52	32562.77
745.86	32689.55
746.199	32615.2
746.538	32650.23
746.877	32881.18
747.216	32837.57
747.556	32829.43
747.895	32919.15
748.234	33024.46
748.573	32943.55
748.911	33072.14
749.25	33120.5
749.589	33028.3
749.928	33305.35
750.267	33379.25
750.605	33242.98
750.944	33397.33
751.283	33318.69
751.621	33588.96
751.96	33507.83
752.298	33655.4
752.636	33684.33
752.975	33641.84
753.313	33607.04
753.651	34112.56
753.989	33831.89
754.327	33923.87
754.666	33761.16
755.004	34028.5
755.342	34220.36
755.679	34274.82
756.017	34184.43
756.355	34450.18
756.693	34233.69
757.031	34522.04
757.368	34385.78
757.706	34515.72
758.044	34266.91
758.381	34465.55
758.719	34489.28
759.056	34622.38
759.394	34568.6
759.731	34398.43
760.068	34376.74
760.405	34555.49
760.743	34633
761.08	34656.73
761.417	34477.3
761.754	34614.92
762.091	34711.87
762.428	34609.5
762.765	34449.05
763.102	34672.55
763.438	34553.91
763.775	34491.76
764.112	34477.07
764.449	34546.68
764.785	34508.94
765.122	34568.82
765.458	34465.1
765.795	34402.27
766.131	34433.46
766.467	34279.34
766.804	34064.43
767.14	34047.71
767.476	34169.51
767.812	34164.77
768.148	34248.83
768.485	34081.38
768.821	33820.82
769.157	33824.44
769.492	33829.86
769.828	33641.62
770.164	33522.07
770.5	33588.96
770.836	33444.78
771.171	33491.56
771.507	33402.07
771.842	33155.07
772.178	33225.58
772.513	33080.95
772.849	33067.62
773.184	32922.76
773.519	32965.48
773.855	32747.85
774.19	32766.61
774.525	32448.88
774.86	32531.81
775.195	32479.84
775.53	32483
775.865	32209.56
776.2	32087.53
776.535	32126.85
776.87	31998.72
777.205	31840.53
777.539	31763.02
777.874	31840.31
778.209	31464.5
778.543	31436.93
778.878	31309.02
779.212	31446.19
779.547	31167.56
779.881	31236.25
780.215	30905.42
780.55	30966.66
780.884	30808.24
781.218	30708.81
781.552	30836.27
781.886	30554.92
782.22	30460.91
782.554	30264.08
782.888	30159.22
783.222	29970.07
783.556	29821.38
783.889	29757.2
784.223	29636.3
784.557	29770.53
784.89	29691.21
785.224	29506.13
785.557	29340.03
785.891	29266.59
786.224	29248.06
786.558	29259.36
786.891	29032.25
787.224	28810.33
787.557	28792.03
787.891	28681.29
788.224	28630.45
788.557	28597.91
788.89	28574.63
789.223	28469.77
789.556	28187.3
789.888	28241.31
790.221	28051.25
790.554	28017.13
790.887	27964.48
791.219	27790.47
791.552	27696.46
791.884	27633.64
792.217	27605.84
792.549	27439.52
792.882	27245.85
793.214	27169.02
793.546	27151.62
793.879	27072.75
794.211	26945.75
794.543	26972.41
794.875	26858.74
795.207	26854.9
795.539	26719.99
795.871	26662.36
796.203	26596.15
796.535	26346.89
796.867	26334.24
797.198	26271.87
797.53	26215.6
797.862	25937.86
798.193	26136.73
798.525	25997.75
798.856	26010.63
799.188	25785.78
799.519	25590.75
799.85	25447.03
800.182	25532.68
800.513	25554.14
800.844	25284.1
801.175	25483.41
801.506	25412.45
801.837	25257.2
802.168	25199.8
802.499	25101.95
802.83	25033.93
803.161	24918.68
803.491	24932.69
803.822	24900.6
804.153	24715.52
804.483	24581.06
804.814	24450.44
805.145	24611.57
805.475	24510.33
805.805	24443.44
806.136	24422.2
806.466	24359.6
806.796	24266.49
807.126	24178.59
807.457	24189.89
807.787	24135.2
808.117	23991.25
808.447	23803
808.777	23979.95
809.107	23835.77
809.436	23622.9
809.766	23707.64
810.096	23666.06
810.426	23624.48
810.755	23573.18
811.085	23541.77
811.414	23448.44
811.744	23358.72
812.073	23353.75
812.403	23243.02
812.732	23130.71
813.061	23245.05
813.39	22999.86
813.719	22949.92
814.049	23047.09
814.378	23060.42
814.707	22777.27
815.036	22838.74
815.365	22713.99
815.693	22637.84
816.022	22600.1
816.351	22567.78
816.68	22377.28
817.008	22566.65
817.337	22320.33
817.665	22285.53
817.994	22330.73
818.322	22375.7
818.651	22196.04
818.979	22207.34
819.307	22174.57
819.636	22054.58
819.964	22065.87
820.292	22088.47
820.62	22010.96
820.948	22131.18
821.276	22162.82
821.604	22062.48
821.932	22125.31
822.259	22095.03
822.587	22051.86
822.915	21904.97
823.243	22065.2
823.57	21802.83
823.898	21994.92
824.225	22055.25
824.553	21908.14
824.88	22016.38
825.207	22046.21
825.535	21971.87
825.862	21970.74
826.189	21961.24
826.516	22143.39
826.843	22067.46
827.17	22156.49
827.497	22091.18
827.824	22061.35
828.151	22219.09
828.478	22079.43
828.805	22206.21
829.131	22134.8
829.458	22118.08
829.785	21932.09
830.111	22050.06
830.438	22200.33
830.764	22020.9
831.09	22117.17
831.417	21888.93
831.743	22117.17
832.069	22061.81
832.395	22001.02
832.722	22037.63
833.048	21937.74
833.374	22047.57
833.7	21898.2
834.026	21940.45
834.351	21911.08
834.677	21890.06
835.003	21939.78
835.329	21734.58
835.654	21907.01
835.98	21768.03
836.306	21862.94
836.631	21784.3
836.956	21927.12
837.282	21818.65
837.607	21809.84
837.932	21780.68
838.258	21668.6
838.583	21613.23
838.908	21582.5
839.233	21610.75
839.558	21444.65
839.883	21454.14
840.208	21353.12
840.533	21458.66
840.858	21421.37
841.182	21375.95
841.507	21356.97
841.832	21285.1
842.156	21361.71
842.481	21216.63
842.805	21135.28
843.13	21024.77
843.454	21235.84
843.778	20992.46
844.103	21027.94
844.427	21049.63
844.751	21039.46
845.075	20863.87
845.399	20875.62
845.723	20768.06
846.047	20776.87
846.371	20684.89
846.695	20606.25
847.019	20516.31
847.343	20403.32
847.666	20291.23
847.99	20186.6
848.313	20068.64
848.637	20077.45
848.96	20022.99
849.284	20057.34
849.607	19817.8
849.931	19877.46
850.254	19769.89
850.577	19614.41
850.9	19525.6
851.223	19471.37
851.546	19411.26
851.869	19225.95
852.192	19403.57
852.515	19188.44
852.838	19143.01
853.161	19039.06
853.483	18960.19
853.806	18900.53
854.129	18892.62
854.451	18861.21
854.774	18635.23
855.096	18782.8
855.419	18592.07
855.741	18555.68
856.063	18569.24
856.385	18355.92
856.708	18371.06
857.03	18317.05
857.352	18298.06
857.674	18234.34
857.996	18127.45
858.318	17981.91
858.64	18056.04
858.961	17958.19
859.283	17966.32
859.605	17862.37
859.926	17891.07
860.248	17862.14
860.57	17609.72
860.891	17727.46
861.212	17734.01
861.534	17695.59
861.855	17555.48
862.176	17606.1
862.498	17597.74
862.819	17514.81
863.14	17447.69
863.461	17380.35
863.782	17371.31
864.103	17374.25
864.424	17246.79
864.745	17322.5
865.065	17333.8
865.386	17141.26
865.707	17193.23
866.027	17167.92
866.348	17138.09
866.668	17066.23
866.989	17027.81
867.309	16839.35
867.63	16886.12
867.95	17009.06
868.27	16827.14
868.59	16897.87
868.91	16896.29
869.23	16807.93
869.55	16806.35
869.87	16867.14
870.19	16661.27
870.51	16796.18
870.83	16646.81
871.15	16655.4
871.469	16503.53
871.789	16601.84
872.109	16621.05
872.428	16470.99
872.748	16472.12
873.067	16520.03
873.386	16495.17
873.706	16491.56
874.025	16415.18
874.344	16379.92
874.663	16370.21
874.982	16392.35
875.301	16357.32
875.62	16201.4
875.939	16161.4
876.258	16251.79
876.577	16163.66
876.896	16033.49
877.214	16087.27
877.533	16193.03
877.852	16099.03
878.17	16110.55
878.489	16018.12
878.807	15946.71
879.125	15987.62
879.444	15993.94
879.762	15883.66
880.08	15949.43
880.398	15794.4
880.716	15810.9
881.034	15808.19
881.352	15898.58
881.67	15877.56
881.988	15716.66
882.306	15670.34
882.624	15753.27
882.941	15643.22
883.259	15642.99
883.577	15630.34
883.894	15586.72
884.212	15495.88
884.529	15481.87
884.846	15315.54
885.164	15451.36
885.481	15429.44
885.798	15376.56
886.115	15245.49
886.432	15243
886.75	15191.03
887.067	15323.9
887.383	15143.12
887.7	15152.38
888.017	14993.07
888.334	15022.44
888.651	14899.06
888.967	14973.18
889.284	14927.76
889.6	14826.97
889.917	14820.42
890.233	14745.39
890.55	14792.62
890.866	14740.19
891.182	14682.57
891.498	14773.41
891.815	14626.3
892.131	14507.66
892.447	14477.6
892.763	14469.92
893.079	14405.06
893.395	14410.93
893.71	14416.81
894.026	14399.64
894.342	14311.28
894.657	14165.52
894.973	14106.08
895.289	14123.71
895.604	14030.38
895.92	14031.51
896.235	13964.39
896.55	13894.79
896.865	13935.69
897.181	13770.95
897.496	13811.4
897.811	13722.14
898.126	13621.12
898.441	13596.04
898.756	13681.24
899.071	13575.48
899.386	13561.69
899.7	13454.35
900.015	13471.07
900.33	13305.43
900.644	13319.44
900.959	13327.8
901.273	13171.65
901.588	13266.78
901.902	13148.59
902.216	13085.55
902.531	13093.68
902.845	13045.32
903.159	12882.84
903.473	12877.64
903.787	12747.93
904.101	12689.17
904.415	12773.46
904.729	12713.35
905.042	12619.8
905.356	12569.63
905.67	12587.25
905.984	12540.02
906.297	12546.35
906.611	12317.66
906.924	12352.91
907.237	12284.21
907.551	12307.94
907.864	12243.53
908.177	12271.56
908.491	12110.43
908.804	12066.14
909.117	12044.44
909.43	12001.28
909.743	11906.14
910.056	11909.76
910.368	11850.32
910.681	11815.97
910.994	11723.1
911.307	11717.67
911.619	11637.67
911.932	11681.06
912.244	11540.73
912.557	11507.28
912.869	11394.97
913.181	11399.94
913.494	11425.7
913.806	11397.45
914.118	11232.94
914.43	11275.65
914.742	11182.32
915.054	11126.28
915.366	11128.08
915.678	11084.02
915.99	11028.42
916.302	10934.87
916.613	10905.72
916.925	10925.15
917.236	10881.31
917.548	10745.95
917.859	10773.29
918.171	10644.71
918.482	10664.14
918.794	10622.79
919.105	10604.48
919.416	10568.32
919.727	10545.5
920.038	10468.89
920.349	10358.61
920.66	10343.7
920.971	10333.75
921.282	10331.72
921.593	10256.24
921.903	10190.25
922.214	10174.66
922.525	10145.74
922.835	10077.04
923.146	10021.45
923.456	10004.72
923.767	9892.18
924.077	9887.21
924.387	9824.84
924.697	9818.29
925.008	9784.16
925.318	9686.77
925.628	9698.06
925.938	9681.34
926.248	9534.9
926.558	9565.19
926.867	9563.83
927.177	9482.93
927.487	9432.53
927.796	9406.55
928.106	9375.13
928.416	9339.43
928.725	9263.95
929.034	9227.79
929.344	9238.64
929.653	9163.16
929.962	9085.2
930.271	9079.78
930.581	9054.92
930.89	8969.5
931.199	8925.2
931.508	8911.42
931.817	8914.36
932.125	8822.83
932.434	8800.91
932.743	8757.3
933.051	8734.47
933.36	8720.46
933.669	8630.07
933.977	8643.18
934.286	8530.86
934.594	8572.22
934.902	8499.68
935.21	8468.72
935.519	8407.93
935.827	8400.02
936.135	8380.13
936.443	8295.16
936.751	8217.2
937.059	8284.09
937.367	8192.34
937.674	8292
937.982	8160.93
938.29	8142.62
938.597	8131.55
938.905	7971.33
939.213	7961.39
939.52	7957.32
939.827	7940.14
940.135	7934.95
940.442	7869.64
940.749	7858.11
941.056	7853.37
941.363	7763.2
941.67	7713.71
941.977	7650.89
942.284	7646.37
942.591	7659.02
942.898	7598.23
943.205	7578.57
943.511	7475.52
943.818	7517.1
944.125	7446.15
944.431	7401.85
944.738	7414.51
945.044	7364.57
945.35	7295.42
945.657	7264.91
945.963	7289.09
946.269	7203.44
946.575	7214.97
946.881	7143.33
947.187	7117.79
947.493	7098.13
947.799	7024.46
948.105	7031.69
948.41	7009.55
948.716	6924.8
949.022	6920.96
949.327	6913.96
949.633	6828.31
949.938	6839.83
950.244	6836.67
950.549	6812.04
950.854	6746.28
951.16	6782.89
951.465	6669.9
951.77	6689.1
952.075	6638.48
952.38	6640.07
952.685	6571.37
952.99	6543.12
953.294	6534.08
953.599	6445.49
953.904	6454.08
954.209	6393.52
954.513	6454.76
954.818	6401.65
955.122	6393.29
955.426	6330.24
955.731	6271.26
956.035	6269.68
956.339	6220.42
956.643	6259.74
956.948	6175.44
957.252	6171.38
957.556	6122.11
957.86	6108.55
958.163	6043.7
958.467	6096.13
958.771	6099.29
959.075	6033.53
959.378	5979.07
959.682	5954.89
959.985	5898.16
960.289	5846.19
960.592	5873.53
960.896	5831.95
961.199	5821.78
961.502	5857.26
961.805	5790.6
962.108	5711.95
962.411	5755.34
962.714	5663.14
963.017	5692.29
963.32	5626.08
963.623	5642.35
963.926	5566.42
964.228	5573.2
964.531	5530.94
964.833	5555.12
965.136	5516.25
965.438	5414.56
965.741	5410.49
966.043	5404.39
966.345	5357.61
966.648	5349.93
966.95	5325.75
967.252	5309.48
967.554	5306.54
967.856	5265.19
968.158	5222.7
968.46	5230.16
968.761	5213.66
969.063	5147.45
969.365	5151.29
969.666	5112.65
969.968	5089.82
970.269	5060.45
970.571	5111.74
970.872	5042.37
971.174	5018.19
971.475	5012.09
971.776	4981.35
972.077	4997.85
972.378	4932.99
972.679	4931.86
972.98	4933.44
973.281	4869.26
973.582	4885.54
973.883	4840.11
974.183	4805.54
974.484	4800.57
974.785	4710.62
975.085	4720.57
975.386	4760.79
975.686	4690.96
975.986	4697.74
976.287	4696.39
976.587	4587.01
976.887	4598.54
977.187	4601.7
977.487	4548.37
977.787	4547.24
978.087	4504.3
978.387	4527.13
978.687	4474.25
978.987	4505.43
979.286	4405.32
979.586	4413.01
979.885	4422.27
980.185	4415.27
980.484	4346.11
980.784	4365.32
981.083	4316.96
981.382	4274.25
981.682	4350.41
981.981	4305.21
982.28	4237.64
982.579	4244.87
982.878	4218.21
983.177	4212.56
983.475	4169.4
983.774	4149.51
984.073	4100.7
984.372	4120.13
984.67	4111.09
984.969	4110.41
985.267	4071.77
985.566	4084.88
985.864	4059.12
986.162	4051.43
986.461	4014.15
986.759	3990.19
987.057	3918.33
987.355	3927.37
987.653	3929.85
987.951	3896.63
988.249	3865.45
988.547	3890.76
988.844	3850.99
989.142	3851.21
989.44	3800.14
989.737	3772.12
990.035	3719.92
990.332	3761.05
990.63	3754.49
990.927	3730.76
991.224	3716.75
991.521	3694.38
991.819	3642.63
992.116	3628.62
992.413	3642.4
992.71	3577.1
993.006	3580.48
993.303	3570.99
993.6	3547.04
993.897	3547.27
994.193	3516.31
994.49	3512.01
994.787	3482.18
995.083	3447.16
995.379	3465.91
995.676	3449.41
995.972	3411.45
996.268	3386.14
996.565	3365.8
996.861	3359.47
997.157	3346.59
997.453	3350.21
997.749	3293.26
998.044	3285.58
998.34	3284.67
998.636	3284.22
998.932	3210.55
999.227	3210.1
999.523	3198.57
999.818	3182.08
1000.114	3168.74
1000.409	3152.02
1000.704	3122.42
1001	3087.84
1001.295	3097.56
1001.59	3074.06
1001.885	3085.36
1002.18	3023.66
1002.475	3031.57
1002.77	3044
1003.065	2976.43
1003.359	3002.2
1003.654	2984.79
1003.949	2991.12
1004.243	2914.74
1004.538	2904.57
1004.832	2905.93
1005.127	2877.9
1005.421	2877.45
1005.715	2827.28
1006.009	2875.87
1006.304	2840.84
1006.598	2771.92
1006.892	2801.07
1007.186	2747.29
1007.48	2764.46
1007.773	2732.15
1008.067	2710.68
1008.361	2713.62
1008.655	2689.66
1008.948	2662.77
1009.242	2665.25
1009.535	2635.43
1009.829	2599.04
1010.122	2639.27
1010.415	2603.79
1010.708	2571.7
1011.001	2562.21
1011.295	2527.86
1011.588	2552.72
1011.881	2510.46
1012.173	2476.11
1012.466	2495.32
1012.759	2484.69
1013.052	2471.81
1013.344	2437.92
1013.637	2467.07
1013.93	2412.61
1014.222	2366.51
1014.514	2396.11
1014.807	2378.71
1015.099	2365.83
1015.391	2329.22
1015.683	2334.19
1015.976	2308.88
1016.268	2300.29
1016.56	2252.61
1016.851	2250.12
1017.143	2241.31
1017.435	2228.66
1017.727	2200.41
1018.018	2181.43
1018.31	2189.34
1018.602	2178.49
1018.893	2176.91
1019.185	2160.18
1019.476	2151.82
1019.767	2113.63
1020.058	2068.43
1020.35	2047.19
1020.641	2047.19
1020.932	2020.53
1021.223	2035.44
1021.514	2044.25
1021.804	2015.1
1022.095	1987.76
1022.386	1961.77
1022.677	1972.17
1022.967	1970.58
1023.258	1947.76
1023.548	1907.31
1023.839	1922
1024.129	1920.19
1024.419	1893.3
1024.709	1873.19
1025	1849.91
1025.29	1863.24
1025.58	1856.24
1025.87	1831.15
1026.16	1816.24
1026.449	1784.15
1026.739	1778.95
1027.029	1755.67
1027.319	1773.3
1027.608	1783.7
1027.898	1737.37
1028.187	1726.75
1028.477	1732.4
1028.766	1718.84
1029.055	1719.52
1029.344	1694.66
1029.634	1646.75
1029.923	1635.23
1030.212	1681.78
1030.501	1630.48
1030.79	1636.81
1031.078	1612.85
1031.367	1586.41
1031.656	1601.78
1031.945	1605.85
1032.233	1556.13
1032.522	1561.33
1032.81	1527.21
1033.099	1528.11
1033.387	1549.13
1033.675	1493.99
1033.963	1514.55
1034.251	1525.85
1034.54	1499.41
1034.828	1468.45
1035.116	1464.16
1035.403	1457.38
1035.691	1434.1
1035.979	1435.46
1036.267	1420.99
1036.554	1422.35
1036.842	1404.95
1037.129	1400.66
1037.417	1388.9
1037.704	1341.9
1037.992	1381.22
1038.279	1350.49
1038.566	1337.15
1038.853	1337.15
1039.14	1337.15
