Data from 635_FLMS001491_010.txt Node
Date: Thu Apr 19 16:46:37 BST 2018
User: hsy
Spectrometer: FLMS00149
Trigger mode: 0
Integration Time (sec): 1.000000E-2
Scans to average: 10
Electric dark correction enabled: true
Nonlinearity correction enabled: false
Boxcar width: 0
XAxis mode: Wavelengths
Number of Pixels in Spectrum: 2048
>>>>>Begin Spectral Data<<<<<
341.393	-5.75
341.776	-5.75
342.16	-5.75
342.543	-67.22
342.927	-78.29
343.31	-69.25
343.693	-56.14
344.077	-74.45
344.46	-73.32
344.843	-56.82
345.226	-37.39
345.61	-31.74
345.993	-19.76
346.376	5.32
346.759	1.48
347.142	20.92
347.525	49.39
347.908	56.17
348.291	90.75
348.674	100.69
349.057	94.14
349.44	121.93
349.823	137.52
350.206	171.87
350.588	227.01
350.971	259.56
351.354	265.88
351.737	263.85
352.119	278.76
352.502	287.8
352.884	284.41
353.267	313.57
353.65	296.16
354.032	345.43
354.414	322.83
354.797	366.9
355.179	344.3
355.562	379.78
355.944	375.03
356.326	353.56
356.709	353.79
357.091	345.65
357.473	377.52
357.855	366.67
358.238	368.7
358.62	371.19
359.002	377.29
359.384	379.78
359.766	359.89
360.148	359.67
360.53	362.38
360.912	369.16
361.294	373.22
361.676	376.16
362.057	365.54
362.439	360.8
362.821	364.64
363.203	374.13
363.584	364.64
363.966	368.03
364.348	381.13
364.729	366.9
365.111	341.59
365.493	358.99
365.874	365.77
366.256	345.65
366.637	338.65
367.019	353.56
367.4	348.82
367.781	345.65
368.163	358.08
368.544	355.82
368.925	351.98
369.306	364.64
369.688	385.65
370.069	397.63
370.45	368.93
370.831	371.87
371.212	352.43
371.593	354.47
371.974	357.41
372.355	381.36
372.736	350.63
373.117	359.89
373.498	360.12
373.879	376.16
374.26	389.5
374.641	380.23
375.021	364.86
375.402	375.71
375.783	377.07
376.163	383.62
376.544	388.37
376.925	393.56
377.305	368.48
377.686	397.18
378.066	404.18
378.447	409.61
378.827	385.88
379.208	392.21
379.588	405.99
379.968	410.51
380.349	402.83
380.729	398.31
381.109	397.18
381.489	408.93
381.87	433.11
382.25	428.36
382.63	421.13
383.01	427.01
383.39	434.01
383.77	421.13
384.15	426.33
384.53	426.1
384.91	455.71
385.29	434.24
385.67	439.66
386.049	456.39
386.429	454.13
386.809	460.68
387.189	445.31
387.568	481.7
387.948	467.91
388.328	458.19
388.707	485.76
389.087	485.54
389.466	473.56
389.846	472.21
390.225	495.03
390.605	509.49
390.984	448.93
391.363	497.06
391.743	469.04
392.122	518.53
392.501	517.85
392.881	515.14
393.26	521.47
393.639	544.97
394.018	519.44
394.397	544.97
394.776	535.25
395.155	520.57
395.534	543.16
395.913	534.8
396.292	548.36
396.671	561.69
397.05	549.27
397.429	561.92
397.808	555.59
398.186	589.49
398.565	607.57
398.944	583.84
399.323	577.51
399.701	594.24
400.08	598.76
400.458	606.66
400.837	607.57
401.215	626.55
401.594	624.97
401.972	630.17
402.351	670.17
402.729	650.51
403.107	650.73
403.486	672.88
403.864	681.24
404.242	678.98
404.62	696.38
404.999	727.79
405.377	711.52
405.755	754.01
406.133	726.21
406.511	739.09
406.889	749.49
407.267	779.54
407.645	776.83
408.023	805.3
408.401	794.68
408.779	817.05
409.156	844.62
409.534	845.08
409.912	862.25
410.29	881.01
410.667	897.05
411.045	928.24
411.422	950.84
411.8	946.54
412.178	971.4
412.555	998.74
412.933	999.42
413.31	1026.99
413.687	1045.52
414.065	1047.11
414.442	1075.13
414.819	1088.91
415.197	1111.96
415.574	1135.46
415.951	1127.1
416.328	1153.77
416.705	1156.48
417.082	1167.55
417.46	1218.63
417.837	1204.84
418.214	1230.38
418.591	1265.4
418.967	1266.99
419.344	1272.86
419.721	1247.78
420.098	1326.42
420.475	1318.74
420.852	1310.38
421.228	1350.6
421.605	1345.63
421.982	1400.99
422.358	1384.72
422.735	1400.99
423.111	1440.09
423.488	1444.38
423.864	1455.23
424.241	1481.44
424.617	1537.04
424.994	1545.17
425.37	1543.36
425.746	1540.65
426.123	1607.77
426.499	1619.97
426.875	1644.6
427.251	1657.26
427.627	1669.24
428.003	1690.93
428.379	1720.08
428.756	1717.82
429.132	1781.1
429.507	1763.92
429.883	1816.8
430.259	1868.33
430.635	1861.55
431.011	1898.61
431.387	1954.2
431.763	1955.78
432.138	1984.26
432.514	2012.96
432.89	2036.23
433.265	2058.83
433.641	2096.8
434.016	2142.9
434.392	2183.35
434.767	2204.59
435.143	2225.15
435.518	2238.94
435.894	2289.33
436.269	2330.24
436.644	2335.88
437.02	2351.03
437.395	2386.28
437.77	2419.95
438.145	2448.88
438.52	2476.9
438.895	2528.42
439.271	2513.06
439.646	2593.96
440.021	2628.98
440.395	2614.97
440.77	2566.84
441.145	2631.02
441.52	2695.2
441.895	2713.5
442.27	2736.78
442.645	2731.58
443.019	2760.51
443.394	2786.04
443.769	2832.14
444.143	2773.61
444.518	2834.63
444.892	2861.29
445.267	2874.85
445.641	2910.33
446.016	2924.8
446.39	2971.12
446.764	2958.47
447.139	2951.91
447.513	3017.9
447.887	3032.36
448.262	3031.23
448.636	3073.72
449.01	3107.84
449.384	3113.49
449.758	3174.05
450.132	3228.29
450.506	3195.52
450.88	3238.69
451.254	3219.93
451.628	3298.12
452.002	3333.15
452.376	3423.31
452.75	3477.32
453.123	3467.83
453.497	3499.24
453.871	3542.86
454.244	3630.09
454.618	3656.08
454.992	3717.32
455.365	3735.17
455.739	3861.95
456.112	3863.3
456.486	3912.11
456.859	3943.3
457.232	4066.01
457.606	4023.07
457.979	4089.96
458.352	4199.56
458.725	4216.29
459.099	4283.4
459.472	4331.54
459.845	4377.87
460.218	4405.89
460.591	4502.61
460.964	4545.32
461.337	4609.72
461.71	4648.59
462.083	4718.65
462.456	4762.04
462.829	4760.68
463.201	4864.63
463.574	4912.31
463.947	4992.31
464.32	5067.11
464.692	5169.48
465.065	5101.01
465.438	5239.54
465.81	5295.13
466.183	5336.26
466.555	5417.61
466.928	5539.64
467.3	5515.46
467.672	5574.22
468.045	5702.35
468.417	5742.35
468.789	5767.43
469.161	5871.39
469.534	5995
469.906	6067.76
470.278	6106.86
470.65	6219.62
471.022	6338.94
471.394	6459.62
471.766	6475.21
472.138	6569.22
472.51	6700.52
472.882	6787.29
473.253	6858.03
473.625	6984.12
473.997	7132.14
474.369	7163.1
474.74	7267.28
475.112	7431.8
475.484	7463.66
475.855	7623.2
476.227	7742.75
476.598	7951.56
476.97	8039.92
477.341	8199.69
477.713	8300.02
478.084	8381.15
478.455	8605.1
478.827	8700.92
479.198	8888.03
479.569	8967.35
479.94	9159.43
480.311	9307.68
480.682	9528.46
481.053	9597.39
481.424	9815.46
481.795	9929.58
482.166	10153.53
482.537	10303.59
482.908	10503.13
483.279	10617.25
483.65	10803.91
484.021	11031.48
484.391	11127.97
484.762	11266.05
485.133	11398.7
485.503	11556.89
485.874	11915.29
486.244	11993.03
486.615	12235.74
486.985	12346.92
487.356	12633.24
487.726	12711.88
488.097	13126.79
488.467	13112.78
488.837	13435.48
489.207	13540.56
489.578	13723.83
489.948	14019.87
490.318	14182.13
490.688	14273.2
491.058	14509.12
491.428	14706.63
491.798	14822.34
492.168	15172.61
492.538	15263
492.908	15507.29
493.278	15714.29
493.648	15742.09
494.017	16055.98
494.387	16195.86
494.757	16285.8
495.126	16464.33
495.496	16559.92
495.866	16803.53
496.235	16990.64
496.605	17198.77
496.974	17212.33
497.344	17471.53
497.713	17596.05
498.082	17686.89
498.452	17918.07
498.821	18078.97
499.19	18170.72
499.559	18254.34
499.928	18436.7
500.298	18557.38
500.667	18736.81
501.036	18807.09
501.405	18877.6
501.774	19054.09
502.143	19151.26
502.512	19387.87
502.88	19568.88
503.249	19569.1
503.618	19800.96
503.987	19786.05
504.356	19993.05
504.724	20129.09
505.093	20248.41
505.462	20331.8
505.83	20345.35
506.199	20659.47
506.567	20901.27
506.936	20877.09
507.304	21114.83
507.672	21279.57
508.041	21407.7
508.409	21480.92
508.777	21766.56
509.145	21915.71
509.514	21870.51
509.882	22025.76
510.25	22167
510.618	22406.32
510.986	22402.7
511.354	22693.99
511.722	22785.06
512.09	23002.69
512.458	23003.36
512.826	23242
513.193	23282.23
513.561	23442.9
513.929	23496.68
514.297	23881.31
514.664	23961.08
515.032	24074.3
515.4	24326.04
515.767	24342.99
516.135	24499.37
516.502	24407.62
516.869	24875.18
517.237	24869.98
517.604	24832.02
517.972	25264.32
518.339	25322.4
518.706	25341.61
519.073	25514.48
519.44	25690.75
519.808	25976.39
520.175	26002.83
520.542	26275.82
520.909	26386.78
521.276	26508.13
521.643	26854.79
522.009	26905.86
522.376	27078.06
522.743	27209.58
523.11	27470.59
523.477	27613.41
523.843	27859.73
524.21	28148.77
524.577	28302.43
524.943	28483.67
525.31	28525.03
525.676	28875.3
526.043	28983.77
526.409	29157.33
526.776	29330.2
527.142	29446.36
527.508	29640.48
527.874	29726.13
528.241	29971.09
528.607	30139.22
528.973	30376.28
529.339	30205.89
529.705	30677.29
530.071	30798.64
530.437	30912.76
530.803	31122.47
531.169	31212.64
531.535	31167.9
531.901	31270.49
532.267	31438.62
532.632	31594.55
532.998	31746.41
533.364	31823.7
533.73	32004.03
534.095	32133.29
534.461	32151.15
534.826	32272.05
535.192	32280.63
535.557	32500.52
535.923	32365.38
536.288	32629.78
536.653	32709.55
537.019	32578.93
537.384	32687.4
537.749	32838.81
538.114	32786.38
538.479	32839.04
538.845	32934.85
539.21	32910.45
539.575	33107.28
539.94	33043.1
540.305	33204.68
540.67	33117.9
541.034	33202.42
541.399	33171.68
541.764	33224.11
542.129	33178.46
542.494	33294.39
542.858	33370.1
543.223	33312.25
543.587	33440.6
543.952	33373.49
544.316	33525.35
544.681	33368.97
545.045	33560.6
545.41	33542.97
545.774	33511.56
546.138	33441.51
546.503	33468.4
546.867	33549.75
547.231	33587.27
547.595	33646.47
547.959	33675.85
548.324	33661.16
548.688	33801.05
549.052	33785.68
549.416	33662.52
549.779	33650.32
550.143	33731.67
550.507	33899.57
550.871	33956.3
551.235	33874.49
551.599	34150.87
551.962	34021.61
552.326	34047.37
552.689	34121.94
553.053	33850.54
553.417	34090.08
553.78	34431.99
554.143	34254.82
554.507	34349.51
554.87	34328.49
555.234	34472.67
555.597	34239.68
555.96	34382.5
556.323	34485.32
556.686	34407.36
557.05	34602.61
557.413	34523.06
557.776	34630.85
558.139	34739.78
558.502	34634.47
558.865	34563.29
559.228	34961.47
559.59	34842.6
559.953	34889.83
560.316	35172.76
560.679	35176.6
561.041	35265.41
561.404	35443.49
561.767	35558.51
562.129	35472.41
562.492	35706.76
562.854	35625.41
563.217	35701.34
563.579	35734.33
563.941	35912.18
564.304	35953.98
564.666	36317.36
565.028	36046.18
565.39	36080.76
565.753	36227.65
566.115	36337.02
566.477	36485.27
566.839	36442.33
567.201	36878.03
567.563	36654.3
567.925	36851.81
568.287	36877.12
568.648	36913.96
569.01	37169.32
569.372	37329.32
569.734	37147.62
570.095	37430.1
570.457	37564.11
570.819	37545.35
571.18	37441.18
571.542	37686.82
571.903	37559.14
572.265	37869.87
572.626	37852.69
572.987	37994.83
573.349	38066.7
573.71	38106.92
574.071	38123.64
574.432	38352.57
574.794	38489.06
575.155	38408.61
575.516	38314.15
575.877	38670.3
576.238	38537.87
576.599	38553.01
576.96	38539.9
577.32	38624.87
577.681	38678.88
578.042	38759.79
578.403	38818.77
578.763	38804.98
579.124	38728.37
579.485	39016.73
579.845	38912.32
580.206	38888.37
580.566	38836.17
580.927	38925.21
581.287	38985.54
581.648	38800.69
582.008	38963.62
582.368	38976.5
582.728	39004.98
583.089	38964.3
583.449	38898.99
583.809	38887.24
584.169	38983.51
584.529	38766.34
584.889	39160.91
585.249	38878.88
585.609	38711.2
585.969	38970.18
586.329	38747.13
586.688	38858.77
587.048	38906.45
587.408	38618.77
587.768	38628.94
588.127	38656.29
588.487	38567.93
588.846	38882.49
589.206	38543.75
589.565	38716.17
589.925	38663.97
590.284	38587.59
590.643	38463.3
591.003	38545.33
591.362	38741.48
591.721	38561.15
592.08	38578.32
592.44	38669.62
592.799	38411.09
593.158	38556.63
593.517	38377.42
593.876	38545.1
594.235	38477.99
594.593	38549.85
594.952	38398.21
595.311	38302.4
595.67	38471.66
596.029	38590.98
596.387	38440.92
596.746	38642.27
597.104	38381.04
597.463	38492.22
597.822	38559.79
598.18	38465.56
598.538	38383.07
598.897	38771.31
599.255	38350.08
599.613	38874.36
599.972	38520.7
600.33	38589.85
600.688	38590.75
601.046	38673.91
601.404	38794.81
601.762	38718.88
602.12	38823.97
602.478	38735.15
602.836	38739.45
603.194	38629.39
603.552	38776.06
603.91	38720.69
604.268	38699.45
604.625	38765.89
604.983	39070.06
605.341	38647.02
605.698	39066.9
606.056	39136.27
606.413	38785.32
606.771	39106.44
607.128	39063.73
607.485	39017.41
607.843	39113
608.2	39319.55
608.557	39380.56
608.914	39327.45
609.272	39314.12
609.629	39531.97
609.986	39575.58
610.343	39515.47
610.7	39859.64
611.057	39683.83
611.414	39632.76
611.771	39927.44
612.127	40047.89
612.484	39896.71
612.841	40047.89
613.198	39954.78
613.554	39849.47
613.911	40186.87
614.267	40113.87
614.624	40152.97
614.98	40384.83
615.337	40467.99
615.693	40435.9
616.05	40376.92
616.406	40547.08
616.762	40482.45
617.118	40579.4
617.475	40601.09
617.831	40729.9
618.187	40859.84
618.543	40772.84
618.899	41027.97
619.255	41070.91
619.611	40916.11
619.967	41064.13
620.323	41199.04
620.678	40986.39
621.034	41063
621.39	40948.88
621.746	40907.3
622.101	41472.03
622.457	41157.69
622.812	41355.42
623.168	41318.59
623.523	41349.1
623.879	41390
624.234	41183.23
624.589	41390.68
624.945	41319.27
625.3	41422.99
625.655	41564.01
626.01	41504.35
626.365	41637.9
626.72	41350.68
627.075	41433.16
627.43	41339.15
627.785	41434.07
628.14	41327.18
628.495	41543.22
628.85	41572.14
629.205	41479.49
629.559	41562.42
629.914	41471.58
630.269	41485.14
630.623	41326.72
630.978	41188.42
631.332	41485.82
631.687	41404.46
632.041	41274.75
632.396	41311.58
632.75	41329.44
633.104	41168.99
633.459	41125.6
633.813	41094.87
634.167	41106.16
634.521	40987.52
634.875	41145.03
635.229	40898.03
635.583	40900.97
635.937	40825.04
636.291	40774.87
636.645	40785.72
636.999	40472.74
637.352	40696.68
637.706	40545.28
638.06	40703.92
638.413	40487.88
638.767	40535.78
639.121	40460.76
639.474	40403.13
639.828	40401.78
640.181	40444.49
640.534	40452.4
640.888	40234.1
641.241	40055.8
641.594	40229.13
641.947	40383.7
642.301	39990.26
642.654	40221.44
643.007	40021.45
643.36	40157.94
643.713	40069.13
644.066	40171.5
644.419	39932.64
644.771	39612.87
645.124	39251.98
645.477	39212.2
645.83	39094.47
646.182	38962.27
646.535	38932.89
646.888	39096.5
647.24	38938.99
647.593	39145.99
647.945	38982.15
648.298	38812.67
648.65	38750.29
649.002	38640.47
649.355	38625.1
649.707	38558.21
650.059	38538.77
650.411	39140.34
650.763	39321.35
651.115	39916.82
651.467	39669.14
651.819	39679.54
652.171	39549.6
652.523	39447.9
652.875	39590.27
653.227	39397.96
653.578	39737.84
653.93	39696.26
654.282	39378.98
654.633	39507.11
654.985	39663.94
655.337	39600.22
655.688	39553.44
656.039	39721.34
656.391	39419.88
656.742	39515.92
657.094	39523.61
657.445	39618.07
657.796	39712.08
658.147	39553.44
658.498	39658.97
658.849	39736.03
659.2	39636.15
659.551	39573.1
659.902	39808.12
660.253	39582.14
660.604	39727.67
660.955	39607.45
661.306	39710.5
661.656	39756.14
662.007	39806.09
662.358	39794.11
662.708	39791.85
663.059	39747.56
663.409	39612.42
663.76	39791.17
664.11	39970.15
664.461	39936.25
664.811	39982.58
665.161	39929.7
665.511	39876.59
665.862	39908.68
666.212	40079.75
666.562	40083.14
666.912	40028
667.262	39776.26
667.612	39877.72
667.962	40135.79
668.312	39917.27
668.662	40181.22
669.011	40093.54
669.361	39906.87
669.711	40040.88
670.06	39976.03
670.41	39834.56
670.76	39876.82
671.109	40003.14
671.459	40005.18
671.808	39898.97
672.157	40049.47
672.507	39672.98
672.856	39795.92
673.205	39813.77
673.554	40088.34
673.904	39657.39
674.253	39845.86
674.602	39901.45
674.951	39298.75
675.3	39147.8
675.649	39715.47
675.998	39722.92
676.346	39594.79
676.695	39757.5
677.044	39399.32
677.393	39575.36
677.741	39681.34
678.09	39517.28
678.438	39435.02
678.787	39428.24
679.135	39423.05
679.484	39142.6
679.832	39409.03
680.181	39359.54
680.529	39217.18
680.877	39158.19
681.225	39023.28
681.573	39250.85
681.922	39049.5
682.27	38909.16
682.618	38854.47
682.966	38775.83
683.314	38786.68
683.661	38736.96
684.009	38571.32
684.357	38610.64
684.705	38364.32
685.053	38390.53
685.4	38393.92
685.748	38107.15
686.095	38083.42
686.443	37851.79
686.79	37891.79
687.138	38036.64
687.485	37885.01
687.832	37654.5
688.18	37702.64
688.527	37540.38
688.874	37381.29
689.221	37347.62
689.568	37336.77
689.915	37161.41
690.262	37112.37
690.609	37004.58
690.956	36808.2
691.303	36818.59
691.65	36642.1
691.997	36484.82
692.344	36433.29
692.69	36306.07
693.037	36271.94
693.383	36054.32
693.73	35913.99
694.077	35876.02
694.423	35828.11
694.769	35749.47
695.116	35624.73
695.462	35447.33
695.808	35265.64
696.155	35368.01
696.501	35016.83
696.847	35032.65
697.193	34792.21
697.539	34825.65
697.885	34498.43
698.231	34420.01
698.577	34363.74
698.923	34398.77
699.269	33919.24
699.614	33867.03
699.96	33700.71
700.306	33771.22
700.651	33554.05
700.997	33538
701.342	33420.04
701.688	33277.44
702.033	33075.64
702.379	33144.11
702.724	32884.23
703.069	32992.48
703.415	32488.99
703.76	32574.64
704.105	32558.14
704.45	32312.27
704.795	32201.77
705.14	32189.11
705.485	32155.67
705.83	31794.32
706.175	31946.86
706.52	31675.45
706.865	31613.31
707.209	31468.23
707.554	31552.52
707.899	31497.83
708.243	31261
708.588	31151.4
708.932	30958.41
709.277	31118.86
709.621	30899.65
709.966	30754.35
710.31	30761.35
710.654	30490.62
710.998	30621.92
711.342	30431.42
711.687	30417.86
712.031	30308.93
712.375	30221.25
712.719	30160.01
713.063	30148.71
713.407	30296.51
713.75	30198.2
714.094	30117.53
714.438	29944.88
714.782	29881.83
715.125	29718.67
715.469	29973.35
715.812	29613.59
716.156	29628.5
716.499	29680.93
716.843	29658.78
717.186	29496.3
717.53	29725.22
717.873	29635.96
718.216	29536.98
718.559	29545.56
718.902	29172.69
719.246	29408.62
719.589	29198.23
719.932	29148.74
720.275	29184.22
720.617	29322.07
720.96	29243.43
721.303	29280.04
721.646	29237.78
721.989	29038.91
722.331	29183.09
722.674	29111.9
723.016	29138.8
723.359	28990.33
723.701	29142.19
724.044	28954.39
724.386	28889.31
724.729	29066.71
725.071	28949.42
725.413	28987.61
725.755	28878.92
726.097	28835.3
726.439	28812.48
726.782	28776.77
727.124	29053.15
727.465	28933.6
727.807	28903.1
728.149	28940.38
728.491	28934.73
728.833	28943.55
729.175	28918.46
729.516	28946.48
729.858	28937.9
730.199	28985.81
730.541	28924.11
730.882	28858.8
731.224	28994.62
731.565	28994.17
731.906	29000.72
732.248	29106.25
732.589	29015.86
732.93	29002.53
733.271	29028.29
733.612	29001.17
733.953	29351.9
734.294	29122.07
734.635	29111.68
734.976	29233.71
735.317	29240.26
735.658	29119.59
735.999	29236.19
736.339	29303.54
736.68	29373.59
737.021	29311.9
737.361	29303.99
737.702	29623.75
738.042	29431.44
738.383	29540.14
738.723	29645.22
739.063	29600.25
739.404	29820.81
739.744	29654.49
740.084	29660.82
740.424	29793.24
740.764	29664.21
741.104	30101.26
741.444	29824.43
741.784	29943.97
742.124	30129.28
742.464	30304.64
742.804	30131.54
743.143	30258.09
743.483	30392.77
743.823	30392.1
744.162	30488.37
744.502	30658.53
744.841	30609.49
745.181	30751.63
745.52	30856.94
745.86	31024.62
746.199	31082.47
746.538	31094.68
746.877	31405.86
747.216	31320.66
747.556	31409.47
747.895	31583.93
748.234	31727.43
748.573	31720.2
748.911	31851.04
749.25	32030.47
749.589	32023.24
749.928	32108.89
750.267	32463
750.605	32333.74
750.944	32674.97
751.283	32756.55
751.621	32884.46
751.96	32791.58
752.298	32925.36
752.636	33225.24
752.975	33287.84
753.313	33369.42
753.651	33784.1
753.989	33617.77
754.327	33837.66
754.666	33751.56
755.004	34076.75
755.342	34135.27
755.679	34409.17
756.017	34337.98
756.355	34623.85
756.693	34694.13
757.031	34960.79
757.368	34694.58
757.706	35101.13
758.044	34974.57
758.381	35202.59
758.719	35186.77
759.056	35599.42
759.394	35445.07
759.731	35422.25
760.068	35505.18
760.405	35687.32
760.743	35804.16
761.08	35805.51
761.417	35930.03
761.754	35908.34
762.091	35992.85
762.428	35952.85
762.765	35918.05
763.102	36185.39
763.438	36107.2
763.775	36077.82
764.112	36161.66
764.449	36276.69
764.785	36333.41
765.122	36259.74
765.458	36207.76
765.795	36303.81
766.131	36557.13
766.467	36367.76
766.804	36212.28
767.14	36316.46
767.476	36271.04
767.812	36203.02
768.148	36396.46
768.485	36265.61
768.821	36161.44
769.157	36069.91
769.492	36166.18
769.828	36102.45
770.164	35915.34
770.5	35815.23
770.836	36036.47
771.171	35893.65
771.507	35790.15
771.842	35743.37
772.178	35660.43
772.513	35635.8
772.849	35651.85
773.184	35489.59
773.519	35535.01
773.855	35519.65
774.19	35334.57
774.525	35219.31
774.86	35373.66
775.195	35137.96
775.53	35101.58
775.865	34881.47
776.2	34834.01
776.535	34772.77
776.87	34644.19
777.205	34502.04
777.539	34549.73
777.874	34530.52
778.209	34238.32
778.543	34251.43
778.878	34084.43
779.212	34043.3
779.547	33888.05
779.881	34087.59
780.215	33627.94
780.55	33835.62
780.884	33502.52
781.218	33364.45
781.552	33600.6
781.886	33366.26
782.22	33072.7
782.554	33098.47
782.888	32862.31
783.222	32850.79
783.556	32718.59
783.889	32685.6
784.223	32403.79
784.557	32478.14
784.89	32555.88
785.224	32285.61
785.557	32102.56
785.891	32038.61
786.224	32100.98
786.558	32043.8
786.891	31813.98
787.224	31605.17
787.557	31605.62
787.891	31482.69
788.224	31197.27
788.557	31303.71
788.89	31209.25
789.223	31187.33
789.556	31089.71
789.888	30898.75
790.221	30829.6
790.554	30744.63
790.887	30747.12
791.219	30560.23
791.552	30614.92
791.884	30401.14
792.217	30337.41
792.549	30177.64
792.882	29948.72
793.214	29930.41
793.546	30051.09
793.879	29870.98
794.211	29602.96
794.543	29784.65
794.875	29638.44
795.207	29566.36
795.539	29449.07
795.871	29524.32
796.203	29243.65
796.535	29058.8
796.867	29157.55
797.198	29039.36
797.53	28951.91
797.862	28688.41
798.193	28689.32
798.525	28475.76
798.856	28694.51
799.188	28260.4
799.519	28291.81
799.85	28151.03
800.182	28188.31
800.513	28268.99
800.844	27910.81
801.175	28091.59
801.506	28017.7
801.837	27895.21
802.168	27732.96
802.499	27698.83
802.83	27497.48
803.161	27449.57
803.491	27452.51
803.822	27610.47
804.153	27411.61
804.483	27160.99
804.814	27086.19
805.145	27170.49
805.475	27156.7
805.805	27040.55
806.136	27047.78
806.466	26939.53
806.796	26866.31
807.126	26665.41
807.457	26647.34
807.787	26720.55
808.117	26512.65
808.447	26506.55
808.777	26440.11
809.107	26285.76
809.436	26132.1
809.766	26093.68
810.096	26234.01
810.426	26066.33
810.755	26137.74
811.085	25945.21
811.414	25990.86
811.744	25757.19
812.073	25797.41
812.403	25721.71
812.732	25665.21
813.061	25851.2
813.39	25438.33
813.719	25410.76
814.049	25516.52
814.378	25433.13
814.707	25280.59
815.036	25351.55
815.365	25090.09
815.693	25049.19
816.022	25083.08
816.351	24840.15
816.68	24930.32
817.008	25019.36
817.337	24733.26
817.665	24752.24
817.994	24727.84
818.322	24836.08
818.651	24691.91
818.979	24585.7
819.307	24629.08
819.636	24605.36
819.964	24456.21
820.292	24617.33
820.62	24452.82
820.948	24566.26
821.276	24555.19
821.604	24466.15
821.932	24541.85
822.259	24355.64
822.587	24484.91
822.915	24457.79
823.243	24480.39
823.57	24375.08
823.898	24557.67
824.225	24474.51
824.553	24477.9
824.88	24381.41
825.207	24482.65
825.535	24415.98
825.862	24521.29
826.189	24388.41
826.516	24529.65
826.843	24572.81
827.17	24626.15
827.497	24514.74
827.824	24519.93
828.151	24655.98
828.478	24492.36
828.805	24659.59
829.131	24527.39
829.458	24575.53
829.785	24408.75
830.111	24515.64
830.438	24628.18
830.764	24536.43
831.09	24598.35
831.417	24464.57
831.743	24675.41
832.069	24545.02
832.395	24377.79
832.722	24521.52
833.048	24359.03
833.374	24529.88
833.7	24370.33
834.026	24493.49
834.351	24319.94
834.677	24439.26
835.003	24531.46
835.329	24380.5
835.654	24408.75
835.98	24297.34
836.306	24354.97
836.631	24180.28
836.956	24336.66
837.282	24247.63
837.607	24217.12
837.932	24082.88
838.258	24152.71
838.583	24220.96
838.908	24106.84
839.233	24147.29
839.558	24071.81
839.883	24010.57
840.208	23892.61
840.533	23911.59
840.858	23714.53
841.182	23838.82
841.507	23899.84
841.832	23753.85
842.156	23742.78
842.481	23710.69
842.805	23527.42
843.13	23511.37
843.454	23612.39
843.778	23407.65
844.103	23456.23
844.427	23366.07
844.751	23344.37
845.075	23347.99
845.399	23218.05
845.723	23119.29
846.047	23185.96
846.371	22957.26
846.695	22869.13
847.019	22755.24
847.343	22718.85
847.666	22681.79
847.99	22547.33
848.313	22590.27
848.637	22335.36
848.96	22337.62
849.284	22316.15
849.607	22150.28
849.931	22010.85
850.254	22045.65
850.577	21759.78
850.9	21656.51
851.223	21652.89
851.546	21584.19
851.869	21426.91
852.192	21710.97
852.515	21348.04
852.838	21250.64
853.161	21313.24
853.483	21170.19
853.806	21075.05
854.129	21020.59
854.451	20994.6
854.774	20856.3
855.096	20809.07
855.419	20698.57
855.741	20689.53
856.063	20540.15
856.385	20532.24
856.708	20424.22
857.03	20419.03
857.352	20350.55
857.674	20335.86
857.996	20187.17
858.318	20162.76
858.64	20209.54
858.961	20052.03
859.283	19993.95
859.605	19962.77
859.926	19925.93
860.248	19822.43
860.57	19780.62
860.891	19834.41
861.212	19739.95
861.534	19589.89
861.855	19598.26
862.176	19702.21
862.498	19591.02
862.819	19567.97
863.14	19459.95
863.461	19442.78
863.782	19350.13
864.103	19342.44
864.424	19267.42
864.745	19321.43
865.065	19170.24
865.386	19126.18
865.707	19132.51
866.027	19208.21
866.348	19155.1
866.668	19073.07
866.989	18967.31
867.309	18985.16
867.63	18937.93
867.95	18945.39
868.27	18812.97
868.59	18932.96
868.91	18801.67
869.23	18784.94
869.55	18721.67
869.87	18790.14
870.19	18677.15
870.51	18752.18
870.83	18643.7
871.15	18533.88
871.469	18609.36
871.789	18539.98
872.109	18557.38
872.428	18502.92
872.748	18586.76
873.067	18473.31
873.386	18393.32
873.706	18450.04
874.025	18364.39
874.344	18286.65
874.663	18290.27
874.982	18333.43
875.301	18220.66
875.62	18208.91
875.939	18119.42
876.258	18147.9
876.577	18052.76
876.896	18111.52
877.214	18025.19
877.533	18012.99
877.852	18015.92
878.17	18040.78
878.489	18026.32
878.807	17937.06
879.125	17881.24
879.444	17852.09
879.762	17804.63
880.08	17936.38
880.398	17758.53
880.716	17759.43
881.034	17721.24
881.352	17661.58
881.67	17609.83
881.988	17589.95
882.306	17538.65
882.624	17535.94
882.941	17409.61
883.259	17534.13
883.577	17460.23
883.894	17438.54
884.212	17368.48
884.529	17392.21
884.846	17290.75
885.164	17240.58
885.481	17119
885.798	17205.78
886.115	16962.84
886.432	17103.18
886.75	16988.61
887.067	17027.02
887.383	16994.48
887.7	16864.32
888.017	16865.67
888.334	16720.82
888.651	16757.65
888.967	16674.72
889.284	16670.88
889.6	16642.18
889.917	16573.25
890.233	16493.25
890.55	16472.24
890.866	16424.55
891.182	16308.17
891.498	16373.26
891.815	16208.51
892.131	16151.57
892.447	16201.51
892.763	16162.87
893.079	16045.13
893.395	15985.24
893.71	15909.99
894.026	15972.14
894.342	15889.2
894.657	15855.08
894.973	15809.43
895.289	15752.26
895.604	15753.84
895.92	15651.02
896.235	15546.16
896.55	15643.33
896.865	15503.22
897.181	15472.71
897.496	15405.37
897.811	15294.64
898.126	15288.54
898.441	15226.85
898.756	15198.82
899.071	15097.81
899.386	15071.82
899.7	14994.08
900.015	14919.73
900.33	14827.53
900.644	14910.24
900.959	14864.14
901.273	14769.68
901.588	14809
901.902	14702.57
902.216	14623.92
902.531	14561.1
902.845	14514.77
903.159	14447.2
903.473	14315.91
903.787	14237.94
904.101	14247.66
904.415	14297.38
904.729	14165.86
905.042	14108
905.356	13985.3
905.67	14007.44
905.984	14079.76
906.297	13905.75
906.611	13801.35
906.924	13830.27
907.237	13773.1
907.551	13708.92
907.864	13701.91
908.177	13634.12
908.491	13560.9
908.804	13458.53
909.117	13336.5
909.43	13371.3
909.743	13314.35
910.056	13249.5
910.368	13177.41
910.681	13241.13
910.994	13072.55
911.307	13072.33
911.619	13004.3
911.932	12941.71
912.244	12855.61
912.557	12885.44
912.869	12777.87
913.181	12740.13
913.494	12695.84
913.806	12624.43
914.118	12606.12
914.43	12562.73
914.742	12403.87
915.054	12380.59
915.366	12397.32
915.678	12292.01
915.99	12242.74
916.302	12219.24
916.613	12116.42
916.925	12089.07
917.236	12023.77
917.548	12007.95
917.859	11991
918.171	11840.95
918.482	11815.86
918.794	11786.71
919.105	11718.01
919.416	11719.59
919.727	11639.82
920.038	11620.84
920.349	11567.96
920.66	11471.24
920.971	11541.29
921.282	11463.1
921.593	11401.41
921.903	11270.79
922.214	11242.77
922.525	11272.37
922.835	11173.62
923.146	11107.18
923.456	11059.95
923.767	10972.04
924.077	11002.55
924.387	10997.35
924.697	10963.45
925.008	10858.37
925.318	10892.5
925.628	10774.53
925.938	10753.74
926.248	10723.01
926.558	10586.06
926.867	10625.38
927.177	10574.99
927.487	10465.84
927.796	10364.6
928.106	10465.84
928.416	10357.59
928.725	10338.16
929.034	10255
929.344	10290.7
929.653	10220.88
929.962	10191.95
930.271	10041.9
930.581	10061.33
930.89	10015.01
931.199	9913.76
931.508	9884.16
931.817	9973.65
932.125	9865.18
932.434	9763.49
932.743	9750.15
933.051	9720.1
933.36	9692.53
933.669	9613.89
933.977	9610.04
934.286	9582.7
934.594	9493.66
934.902	9463.16
935.21	9438.3
935.519	9412.08
935.827	9339.32
936.135	9302.03
936.443	9191.07
936.751	9207.34
937.059	9225.42
937.367	9138.87
937.674	9178.87
937.982	9109.27
938.29	9066.56
938.597	9005.77
938.905	8932.55
939.213	8931.42
939.52	8900.01
939.827	8880.35
940.135	8850.06
940.442	8778.88
940.749	8746.79
941.056	8720.8
941.363	8594.7
941.67	8626.79
941.977	8556.06
942.284	8467.93
942.591	8500.24
942.898	8573.24
943.205	8470.41
943.511	8403.07
943.818	8379.34
944.125	8283.07
944.431	8298.67
944.738	8243.07
945.044	8209.18
945.35	8109.29
945.657	8125.56
945.963	8121.04
946.269	8022.06
946.575	8068.84
946.881	7980.93
947.187	7948.39
947.493	7869.52
947.799	7887.38
948.105	7846.93
948.41	7783.65
948.716	7827.94
949.022	7753.82
949.327	7727.83
949.633	7622.53
949.938	7688.74
950.244	7619.36
950.549	7568.29
950.854	7535.97
951.16	7501.85
951.465	7529.19
951.77	7375.53
952.075	7414.62
952.38	7379.37
952.685	7417.33
952.99	7284
953.294	7260.28
953.599	7234.29
953.904	7187.73
954.209	7128.53
954.513	7161.97
954.818	7151.35
955.122	7105.93
955.426	7055.99
955.731	7019.15
956.035	6965.14
956.339	6932.15
956.643	6902.09
956.948	6809.44
957.252	6796.78
957.556	6806.73
957.86	6855.54
958.163	6804.69
958.467	6751.14
958.771	6743.9
959.075	6705.71
959.378	6619.39
959.682	6636.79
959.985	6605.83
960.289	6587.07
960.592	6509.79
960.896	6487.87
961.199	6486.74
961.502	6455.32
961.805	6448.77
962.108	6339.17
962.411	6329.23
962.714	6274.99
963.017	6280.19
963.32	6277.93
963.623	6206.29
963.926	6241.54
964.228	6156.35
964.531	6164.03
964.833	6162.45
965.136	6116.12
965.438	6031.61
965.741	6021.21
966.043	5990.25
966.345	5970.14
966.648	5961.55
966.95	5939.63
967.252	5916.36
967.554	5896.02
967.856	5902.8
968.158	5842.91
968.46	5801.78
968.761	5758.85
969.063	5794.78
969.365	5793.65
969.666	5690.6
969.968	5614.67
970.269	5611.28
970.571	5603.82
970.872	5568.34
971.174	5487.21
971.475	5516.82
971.776	5547.1
972.077	5499.19
972.378	5506.65
972.679	5433.88
972.98	5416.48
973.281	5419.65
973.582	5399.31
973.883	5371.29
974.183	5324.28
974.484	5324.51
974.785	5276.15
975.085	5281.57
975.386	5278.41
975.686	5170.39
975.986	5177.84
976.287	5157.05
976.587	5127.9
976.887	5129.71
977.187	5074.8
977.487	5076.38
977.787	5004.97
978.087	4994.12
978.387	4970.84
978.687	4983.72
978.987	4958.87
979.286	4890.62
979.586	4959.09
979.885	4835.03
980.185	4872.54
980.484	4776.5
980.784	4818.98
981.083	4820.57
981.382	4769.49
981.682	4750.06
981.981	4772.88
982.28	4758.87
982.579	4674.13
982.878	4686.33
983.177	4658.99
983.475	4644.3
983.774	4541.48
984.073	4580.8
984.372	4538.76
984.67	4544.87
984.969	4523.62
985.267	4520.69
985.566	4454.7
985.864	4439.56
986.162	4430.52
986.461	4395.49
986.759	4418.09
987.057	4317.3
987.355	4339.22
987.653	4286.57
987.951	4289.05
988.249	4287.25
988.547	4255.61
988.844	4262.84
989.142	4261.71
989.44	4165.67
989.737	4181.71
990.035	4148.72
990.332	4130.41
990.63	4129.28
990.927	4066.69
991.224	4050.87
991.521	4071.21
991.819	4012.23
992.116	4073.47
992.413	3997.31
992.71	3954.6
993.006	3964.77
993.303	3950.98
993.6	3950.98
993.897	3908.5
994.193	3909.18
994.49	3861.49
994.787	3828.73
995.083	3828.05
995.379	3769.52
995.676	3821.27
995.972	3741.5
996.268	3746.24
996.565	3739.69
996.861	3731.1
997.157	3703.98
997.453	3666.25
997.749	3625.34
998.044	3627.83
998.34	3578.56
998.636	3561.62
998.932	3583.99
999.227	3528.85
999.523	3522.97
999.818	3495.85
1000.114	3525.01
1000.409	3476.87
1000.704	3412.24
1001	3444.56
1001.295	3423.09
1001.59	3355.75
1001.885	3369.76
1002.18	3354.39
1002.475	3322.3
1002.77	3312.81
1003.065	3295.63
1003.359	3245.69
1003.654	3315.52
1003.949	3258.12
1004.243	3200.95
1004.538	3199.82
1004.832	3181.06
1005.127	3183.77
1005.421	3148.52
1005.715	3145.36
1006.009	3148.74
1006.304	3096.54
1006.598	3088.18
1006.892	3062.19
1007.186	3058.58
1007.48	3023.32
1007.773	3002.99
1008.067	3010.22
1008.361	2956.66
1008.655	2949.65
1008.948	2926.6
1009.242	2946.94
1009.535	2896.77
1009.829	2854.06
1010.122	2856.1
1010.415	2830.79
1010.708	2825.82
1011.001	2781.52
1011.295	2802.54
1011.588	2770.68
1011.881	2767.29
1012.173	2777.91
1012.466	2736.55
1012.759	2687.51
1013.052	2705.82
1013.344	2709.43
1013.637	2680.28
1013.93	2623.56
1014.222	2619.27
1014.514	2588.53
1014.807	2581.08
1015.099	2567.29
1015.391	2559.61
1015.683	2507.41
1015.976	2511.25
1016.268	2524.13
1016.56	2511.7
1016.851	2460.18
1017.143	2467.18
1017.435	2435.32
1017.727	2442.32
1018.018	2418.14
1018.31	2400.74
1018.602	2378.6
1018.893	2344.25
1019.185	2384.92
1019.476	2308.99
1019.767	2307.86
1020.058	2297.92
1020.35	2246.4
1020.641	2277.81
1020.932	2247.75
1021.223	2223.35
1021.514	2217.47
1021.804	2195.78
1022.095	2197.58
1022.386	2175.44
1022.677	2146.29
1022.967	2126.4
1023.258	2106.74
1023.548	2116.23
1023.839	2107.19
1024.129	2089.79
1024.419	2064.93
1024.709	2054.54
1025	2011.83
1025.29	2005.27
1025.58	1975.67
1025.87	1974.76
1026.16	1961.88
1026.449	1967.31
1026.739	1937.48
1027.029	1950.13
1027.319	1923.69
1027.608	1932.28
1027.898	1897.7
1028.187	1855.45
1028.477	1883.92
1028.766	1872.17
1029.055	1884.15
1029.344	1841.21
1029.634	1815.22
1029.923	1808.22
1030.212	1803.7
1030.501	1741.32
1030.79	1744.49
1031.078	1711.04
1031.367	1763.47
1031.656	1740.65
1031.945	1727.31
1032.233	1705.39
1032.522	1695
1032.81	1677.6
1033.099	1669.01
1033.387	1641.67
1033.675	1633.3
1033.963	1621.55
1034.251	1603.7
1034.54	1593.31
1034.828	1603.7
1035.116	1562.35
1035.403	1576.36
1035.691	1566.41
1035.979	1541.33
1036.267	1549.46
1036.554	1560.31
1036.842	1521.67
1037.129	1489.35
1037.417	1488.9
1037.704	1482.12
1037.992	1501.33
1038.279	1467.66
1038.566	1444.38
1038.853	1444.38
1039.14	1444.38
