Data from 635_FLMS001491_001.txt Node
Date: Thu Apr 19 16:46:14 BST 2018
User: hsy
Spectrometer: FLMS00149
Trigger mode: 0
Integration Time (sec): 1.000000E-2
Scans to average: 10
Electric dark correction enabled: true
Nonlinearity correction enabled: false
Boxcar width: 0
XAxis mode: Wavelengths
Number of Pixels in Spectrum: 2048
>>>>>Begin Spectral Data<<<<<
341.393	-11.27
341.776	-11.27
342.16	-11.27
342.543	-33.87
342.927	-69.12
343.31	-80.2
343.693	-73.19
344.077	-49.24
344.46	-62.12
344.843	-44.94
345.226	-39.74
345.61	-54.89
345.993	-7.43
346.376	-11.5
346.759	4.1
347.142	19.91
347.525	41.61
347.908	75.73
348.291	89.52
348.674	88.61
349.057	103.75
349.44	134.94
349.823	142.4
350.206	171.55
350.588	212.45
350.971	246.8
351.354	238.67
351.737	282.28
352.119	292.45
352.502	309.17
352.884	317.76
353.267	308.49
353.65	318.66
354.032	320.47
354.414	340.36
354.797	338.78
355.179	359.57
355.562	377.65
355.944	368.61
356.326	377.65
356.709	380.58
357.091	376.52
357.473	387.36
357.855	371.32
358.238	398.21
358.62	378.78
359.002	389.85
359.384	376.06
359.766	375.39
360.148	380.36
360.53	367.93
360.912	372.45
361.294	364.99
361.676	378.55
362.057	371.54
362.439	372.9
362.821	359.11
363.203	370.87
363.584	371.32
363.966	374.93
364.348	391.88
364.729	384.65
365.111	383.52
365.493	364.99
365.874	363.18
366.256	366.35
366.637	385.55
367.019	378.78
367.4	373.35
367.781	377.87
368.163	372.22
368.544	364.76
368.925	363.86
369.306	383.97
369.688	382.84
370.069	361.83
370.45	362.5
370.831	371.77
371.212	381.49
371.593	372.67
371.974	363.63
372.355	378.32
372.736	397.08
373.117	377.65
373.498	391.43
373.879	375.39
374.26	358.66
374.641	366.57
375.021	364.54
375.402	388.49
375.783	425.55
376.163	412.22
376.544	401.6
376.925	421.71
377.305	418.1
377.686	390.53
378.066	396.85
378.447	404.76
378.827	416.51
379.208	414.25
379.588	404.76
379.968	411.99
380.349	408.61
380.729	410.86
381.109	421.26
381.489	390.53
381.87	410.86
382.25	422.62
382.63	399.11
383.01	425.78
383.39	407.25
383.77	438.89
384.15	448.15
384.53	434.14
384.91	439.34
385.29	481.15
385.67	445.21
386.049	469.85
386.429	447.47
386.809	474.82
387.189	470.3
387.568	465.78
387.948	478.66
388.328	484.54
388.707	478.89
389.087	507.36
389.466	492.9
389.846	494.03
390.225	483.63
390.605	512.56
390.984	512.56
391.363	513.91
391.743	531.99
392.122	520.24
392.501	517.3
392.881	531.31
393.26	535.16
393.639	533.35
394.018	534.93
394.397	555.27
394.776	552.56
395.155	569.28
395.534	546.45
395.913	549.84
396.292	555.72
396.671	582.39
397.05	574.93
397.429	574.25
397.808	572.44
398.186	573.8
398.565	587.81
398.944	577.41
399.323	603.85
399.701	617.87
400.08	616.06
400.458	610.63
400.837	639.79
401.215	662.38
401.594	621.93
401.972	648.37
402.351	667.58
402.729	698.54
403.107	679.11
403.486	680.69
403.864	669.62
404.242	698.31
404.62	717.3
404.999	741.48
405.377	745.55
405.755	725.43
406.133	735.38
406.511	764.53
406.889	779.22
407.267	777.41
407.645	788.03
408.023	811.98
408.401	831.87
408.779	836.62
409.156	859.89
409.534	866.22
409.912	876.84
410.29	912.09
410.667	910.51
411.045	924.98
411.422	947.35
411.8	964.97
412.178	973.11
412.555	1008.59
412.933	1022.37
413.31	1028.7
413.687	1058.31
414.065	1079.77
414.442	1117.06
414.819	1122.26
415.197	1128.13
415.574	1157.06
415.951	1158.42
416.328	1162.26
416.705	1200.67
417.082	1206.1
417.46	1243.39
417.837	1255.14
418.214	1265.53
418.591	1301.01
418.967	1310.28
419.344	1302.37
419.721	1348.69
420.098	1328.58
420.475	1348.92
420.852	1364.74
421.228	1378.98
421.605	1398.86
421.982	1410.16
422.358	1440.44
422.735	1461.91
423.111	1438.41
423.488	1505.07
423.864	1492.64
424.241	1508.69
424.617	1555.92
424.994	1583.04
425.37	1595.69
425.746	1609.25
426.123	1625.07
426.499	1640.44
426.875	1667.56
427.251	1682.7
427.627	1752.98
428.003	1733.99
428.379	1766.99
428.756	1803.82
429.132	1819.87
429.507	1837.95
429.883	1872.75
430.259	1869.13
430.635	1944.84
431.011	1960.88
431.387	1983.03
431.763	1996.81
432.138	2052.86
432.514	2047.21
432.89	2098.28
433.265	2110.71
433.641	2127.66
434.016	2175.79
434.392	2236.35
434.767	2263.47
435.143	2267.09
435.518	2307.09
435.894	2355.67
436.269	2401.32
436.644	2429.12
437.02	2432.73
437.395	2476.8
437.77	2474.54
438.145	2517.25
438.52	2507.08
438.895	2548.89
439.271	2545.5
439.646	2658.94
440.021	2675.66
440.395	2698.04
440.77	2707.75
441.145	2720.18
441.52	2772.84
441.895	2786.85
442.27	2806.06
442.645	2791.82
443.019	2868.43
443.394	2829.33
443.769	2899.61
444.143	2896.68
444.518	2916.11
444.892	2914.3
445.267	2963.79
445.641	2971.7
446.016	3027.52
446.39	3036.33
446.764	3053.96
447.139	3060.06
447.513	3108.42
447.887	3091.02
448.262	3113.84
448.636	3174.86
449.01	3176.44
449.384	3197.01
449.758	3278.81
450.132	3283.11
450.506	3322.43
450.88	3336.44
451.254	3357
451.628	3419.83
452.002	3422.09
452.376	3479.94
452.75	3532.14
453.123	3537.34
453.497	3615.98
453.871	3660.05
454.244	3735.75
454.618	3723.09
454.992	3780.27
455.365	3844.45
455.739	3922.86
456.112	3941.17
456.486	4008.51
456.859	4039.7
457.232	4123.31
457.606	4138.22
457.979	4192.91
458.352	4284.21
458.725	4340.48
459.099	4349.07
459.472	4448.5
459.845	4507.71
460.218	4552.9
460.591	4580.25
460.964	4653.24
461.337	4776.4
461.71	4789.51
462.083	4833.8
462.456	4912.89
462.829	4913.8
463.201	5016.85
463.574	5018.88
463.947	5130.74
464.32	5248.7
464.692	5236.05
465.065	5336.61
465.438	5366.21
465.81	5413.67
466.183	5456.61
466.555	5636.94
466.928	5717.62
467.3	5647.11
467.672	5758.75
468.045	5870.61
468.417	5900.44
468.789	5967.55
469.161	6033.32
469.534	6148.34
469.906	6254.78
470.278	6344.49
470.65	6396.7
471.022	6444.6
471.394	6566.64
471.766	6664.94
472.138	6751.94
472.51	6903.8
472.882	6920.3
473.253	7063.12
473.625	7132.04
473.997	7297.01
474.369	7430.12
474.74	7405.03
475.112	7641.18
475.484	7744.68
475.855	7817.9
476.227	7921.4
476.598	8130.66
476.97	8233.94
477.341	8424.67
477.713	8514.83
478.084	8601.61
478.455	8809.51
478.827	8904.88
479.198	9185.78
479.569	9156.62
479.94	9410.18
480.311	9554.58
480.682	9678.42
481.053	9921.58
481.424	10100.33
481.795	10199.53
482.166	10401.79
482.537	10503.71
482.908	10799.29
483.279	10887.2
483.65	11019.4
484.021	11314.31
484.391	11362.44
484.762	11562.66
485.133	11684.47
485.503	11827.74
485.874	12169.2
486.244	12194.28
486.615	12582.52
486.985	12696.19
487.356	12872.68
487.726	13068.16
488.097	13384.99
488.467	13398.55
488.837	13729.16
489.207	13819.55
489.578	14095.7
489.948	14227.45
490.318	14474.9
490.688	14562.58
491.058	14859.75
491.428	15004.83
491.798	15173.41
492.168	15477.81
492.538	15578.15
492.908	15846.84
493.278	16001.42
493.648	16101.98
494.017	16388.3
494.387	16484.11
494.757	16596.2
495.126	16865.57
495.496	16938.34
495.866	17145.11
496.235	17242.96
496.605	17462.39
496.974	17592.11
497.344	17753.91
497.713	17956.84
498.082	18080.68
498.452	18230.06
498.821	18309.15
499.19	18472.76
499.559	18638.86
499.928	18747.33
500.298	18839.08
500.667	19110.71
501.036	19133.54
501.405	19364.72
501.774	19417.82
502.143	19515.45
502.512	19748.21
502.88	19796.34
503.249	19953.4
503.618	20091.7
503.987	20200.4
504.356	20320.4
504.724	20426.38
505.093	20594.29
505.462	20730.56
505.83	20766.94
506.199	20976.65
506.567	21245.35
506.936	21254.84
507.304	21415.74
507.672	21616.41
508.041	21659.35
508.409	21943.63
508.777	22114.25
509.145	22118.99
509.514	22192.89
509.882	22469.72
510.25	22473.11
510.618	22679.88
510.986	22783.38
511.354	23029.93
511.722	23142.92
512.09	23241.45
512.458	23287.1
512.826	23542.23
513.193	23522.35
513.561	23696.81
513.929	23876.24
514.297	24087.08
514.664	24368.65
515.032	24467.41
515.4	24574.52
515.767	24587.86
516.135	24713.05
516.502	24755.08
516.869	25080.27
517.237	25219.7
517.604	25146.71
517.972	25650.65
518.339	25623.08
518.706	25788.5
519.073	25770.65
519.44	26014.71
519.808	26285.66
520.175	26245.89
520.542	26711.64
520.909	26765.2
521.276	26812.2
521.643	27072.08
522.009	27165.87
522.376	27480.21
522.743	27599.53
523.11	27836.13
523.477	28022.57
523.843	28149.8
524.21	28504.36
524.577	28671.59
524.943	28771.93
525.31	28897.35
525.676	29133.95
526.043	29295.53
526.409	29474.73
526.776	29746.59
527.142	29845.8
527.508	29995.4
527.874	30225.22
528.241	30370.08
528.607	30613.46
528.973	30761.25
529.339	30774.81
529.705	31062.04
530.071	31282.14
530.437	31422.03
530.803	31603.27
531.169	31799.42
531.535	31638.52
531.901	31788.34
532.267	31821.34
532.632	32048.9
532.998	32207.77
533.364	32335.22
533.73	32323.25
534.095	32513.75
534.461	32607.76
534.826	32680.52
535.192	32735.66
535.557	33022.44
535.923	32938.37
536.288	32923.91
536.653	33088.65
537.019	33001.19
537.384	33240.51
537.749	33210.23
538.114	33432.14
538.479	33266.5
538.845	33398.7
539.21	33303.33
539.575	33396.21
539.94	33508.07
540.305	33498.13
540.67	33448.19
541.034	33556.21
541.399	33577.45
541.764	33605.02
542.129	33685.02
542.494	33794.85
542.858	33798.24
543.223	33683.66
543.587	33817.67
543.952	33772.93
544.316	33898.12
544.681	33711.46
545.045	33936.31
545.41	33996.65
545.774	33855.41
546.138	33925.69
546.503	33982.19
546.867	34131.11
547.231	34175.85
547.595	34217.43
547.959	34073.26
548.324	34185.8
548.688	34159.13
549.052	34085.23
549.416	34130.43
549.779	34004.56
550.143	34192.58
550.507	34357.99
550.871	34293.59
551.235	34311.44
551.599	34541.27
551.962	34552.79
552.326	34500.14
552.689	34413.13
553.053	34345.11
553.417	34466.92
553.78	34648.83
554.143	34586.92
554.507	34805.44
554.87	34737.65
555.234	35044.3
555.597	34554.37
555.96	34822.62
556.323	34963.18
556.686	34840.24
557.05	35020.8
557.413	35050.18
557.776	34950.07
558.139	35231.87
558.502	35159.1
558.865	35296.5
559.228	35372.66
559.59	35371.53
559.953	35480.45
560.316	35715.93
560.679	35538.75
561.041	35607.91
561.404	35802.7
561.767	36118.63
562.129	35852.19
562.492	36111.17
562.854	36019.65
563.217	36050.61
563.579	36213.54
563.941	36311.84
564.304	36373.08
564.666	36610.37
565.028	36582.8
565.39	36585.96
565.753	36814.88
566.115	36818.95
566.477	36914.76
566.839	37009
567.201	37262.1
567.563	37215.32
567.925	37244.7
568.287	37309.56
568.648	37213.97
569.01	37481.53
569.372	37820.5
569.734	37641.07
570.095	37908.86
570.457	37952.7
570.819	37943.89
571.18	37978.24
571.542	38305.24
571.903	38117.67
572.265	38329.19
572.626	38335.74
572.987	38166.48
573.349	38484.89
573.71	38570.99
574.071	38616.64
574.432	38750.87
574.794	38871.55
575.155	38891.44
575.516	38728.05
575.877	38782.96
576.238	38980.25
576.599	39089.17
576.96	39090.53
577.32	38879.68
577.681	39021.38
578.042	39283.29
578.403	39096.18
578.763	38989.29
579.124	39139.56
579.485	39350.86
579.845	39419.78
580.206	39238.09
580.566	39167.59
580.927	39325.1
581.287	39362.84
581.648	39218.66
582.008	39548.82
582.368	39404.42
582.728	39466.56
583.089	39359.9
583.449	39253.46
583.809	39300.69
584.169	39474.02
584.529	39180.92
584.889	39464.98
585.249	39182.95
585.609	39029.51
585.969	39244.87
586.329	39189.96
586.688	39121.71
587.048	39141.15
587.408	39056.85
587.768	39080.36
588.127	39114.03
588.487	38980.92
588.846	39141.37
589.206	38965.33
589.565	38930.98
589.925	39126.68
590.284	39043.97
590.643	39026.57
591.003	39025.89
591.362	39089.62
591.721	39024.54
592.08	39041.94
592.44	39119.68
592.799	38868.38
593.158	38887.59
593.517	38740.25
593.876	39027.7
594.235	38917.2
594.593	38866.35
594.952	38961.94
595.311	38787.93
595.67	38854.83
596.029	38918.33
596.387	38933.69
596.746	39197.19
597.104	38728.05
597.463	38890.53
597.822	39006.23
598.18	38875.84
598.538	38993.58
598.897	39203.07
599.255	38853.7
599.613	39326.68
599.972	39026.12
600.33	39018.44
600.688	39058.21
601.046	39061.37
601.404	39255.72
601.762	39147.7
602.12	39326.68
602.478	39267.7
602.836	39345.21
603.194	39190.86
603.552	39069.06
603.91	39046.46
604.268	39098.44
604.625	39148.15
604.983	39349.05
605.341	39054.14
605.698	39380.01
606.056	39522.6
606.413	39498.65
606.771	39566.22
607.128	39571.42
607.485	39342.27
607.843	39462.72
608.2	39808.47
608.557	39780.68
608.914	39784.29
609.272	39825.42
609.629	40032.42
609.986	40177.05
610.343	39937.74
610.7	40238.97
611.057	40198.97
611.414	40145.19
611.771	40351.96
612.127	40315.58
612.484	40424.73
612.841	40522.58
613.198	40495.23
613.554	40347.89
613.911	40720.77
614.267	40684.83
614.624	40714.89
614.98	40860.42
615.337	41018.61
615.693	40978.39
616.05	40951.04
616.406	41062
616.762	41006.63
617.118	40989.91
617.475	41033.98
617.831	41240.07
618.187	41267.87
618.543	41330.01
618.899	41435.55
619.255	41415.89
619.611	41460.18
619.967	41647.75
620.323	41721.64
620.678	41571.59
621.034	41591.93
621.39	41593.51
621.746	41562.1
622.101	42013.16
622.457	41512.61
622.812	41807.29
623.168	41999.15
623.523	41871.47
623.879	41958.02
624.234	41912.6
624.589	41932.26
624.945	41866.05
625.3	41994.86
625.655	42118.02
626.01	42018.36
626.365	42023.33
626.72	41967.06
627.075	42012.71
627.43	41936.55
627.785	41936.33
628.14	41930.45
628.495	42004.57
628.85	41916.44
629.205	41860.4
629.559	41963.22
629.914	41885.93
630.269	41826.73
630.623	41611.36
630.978	41798.25
631.332	41939.26
631.687	41912.37
632.041	41757.35
632.396	41751.92
632.75	41603.68
633.104	41713.73
633.459	41642.78
633.813	41639.61
634.167	41507.19
634.521	41637.35
634.875	41594.64
635.229	41578.14
635.583	41409.56
635.937	41373.4
636.291	41383.12
636.645	41320.98
636.999	41283.46
637.352	41292.73
637.706	41049.12
638.06	41231.71
638.413	41164.82
638.767	40950.36
639.121	41114.88
639.474	40982.45
639.828	40826.3
640.181	40890.93
640.534	40992.85
640.888	40789.24
641.241	40634.67
641.594	40772.06
641.947	40873.98
642.301	40603.25
642.654	40749.47
643.007	40638.51
643.36	40745.62
643.713	40635.57
644.066	40791.95
644.419	40542.24
644.771	40194.23
645.124	39818.19
645.477	39845.53
645.83	39751.98
646.182	39720.57
646.535	39587.91
646.888	39663.39
647.24	39511.98
647.593	39780.45
647.945	39579.78
648.298	39569.16
648.65	39368.94
649.002	39320.58
649.355	39284.65
649.707	39249.39
650.059	39195.16
650.411	39669.04
650.763	39868.36
651.115	40477.61
651.467	40195.13
651.819	40201.23
652.171	40286.88
652.523	40111.29
652.875	40207.56
653.227	40064.74
653.578	40382.02
653.93	40199.65
654.282	40024.74
654.633	40063.16
654.985	40142.02
655.337	40228.12
655.688	40083.04
656.039	40348.12
656.391	39832.88
656.742	40037.17
657.094	40162.36
657.445	40113.1
657.796	40213.89
658.147	40135.7
658.498	40208.01
658.849	40197.16
659.2	40225.86
659.551	40061.57
659.902	40233.09
660.253	40252.3
660.604	40354.67
660.955	40194.45
661.306	40452.3
661.656	40245.07
662.007	40389.25
662.358	40429.93
662.708	40351.74
663.059	40525.52
663.409	40266.09
663.76	40510.15
664.11	40401
664.461	40552.86
664.811	40548.11
665.161	40395.8
665.511	40360.1
665.862	40361.9
666.212	40642.58
666.562	40568
666.912	40580.43
667.262	40376.82
667.612	40424.05
667.962	40569.13
668.312	40581.33
668.662	40653.65
669.011	40636.47
669.361	40640.09
669.711	40703.59
670.06	40456.59
670.41	40426.99
670.76	40520.32
671.109	40581.33
671.459	40549.24
671.808	40457.5
672.157	40552.86
672.507	40188.8
672.856	40487.78
673.205	40293.43
673.554	40427.89
673.904	40309.02
674.253	40694.55
674.602	40293.88
674.951	39837.62
675.3	39563.96
675.649	40352.87
675.998	40146.54
676.346	40329.36
676.695	40262.47
677.044	40036.04
677.393	40071.07
677.741	40150.38
678.09	40101.8
678.438	40047.56
678.787	40098.86
679.135	39993.33
679.484	39819.55
679.832	40014.34
680.181	39778.64
680.529	39900.45
680.877	39536.16
681.225	39619.33
681.573	39780
681.922	39637.18
682.27	39468.59
682.618	39476.05
682.966	39332.1
683.314	39327.58
683.661	39309.96
684.009	39093.01
684.357	39089.17
684.705	38937.08
685.053	39032.9
685.4	38667.49
685.748	38641.05
686.095	38719.01
686.443	38498
686.79	38405.8
687.138	38490.54
687.485	38368.28
687.832	38218.68
688.18	38232.24
688.527	37898.24
688.874	38028.18
689.221	37878.13
689.568	37836.1
689.915	37532.37
690.262	37686.04
690.609	37557.46
690.956	37470.68
691.303	37296.45
691.65	37147.07
691.997	37041.54
692.344	36919.28
692.69	36829.79
693.037	36833.41
693.383	36509.8
693.73	36491.5
694.077	36228.68
694.423	36140.77
694.769	36316.59
695.116	36067.78
695.462	35910.5
695.808	35893.55
696.155	35807
696.501	35506.21
696.847	35530.62
697.193	35222.83
697.539	35157.52
697.885	35017.86
698.231	34803.41
698.577	34864.42
698.923	34620.59
699.269	34419.46
699.614	34294.04
699.96	34327.04
700.306	34231.9
700.651	34036.87
700.997	33707.16
701.342	33732.25
701.688	33640.73
702.033	33467.85
702.379	33459.49
702.724	33368.64
703.069	33267.63
703.415	32899.95
703.76	33029.67
704.105	32822.44
704.45	32684.82
704.795	32704.03
705.14	32513.75
705.485	32387.2
705.83	32217.49
706.175	32257.49
706.52	32125.74
706.865	31955.12
707.209	31941.79
707.554	31669.03
707.899	31761.9
708.243	31565.75
708.588	31634.68
708.932	31413.67
709.277	31450.27
709.621	31373.44
709.966	31049.38
710.31	31255.7
710.654	31001.7
710.998	31025.2
711.342	31058.19
711.687	30883.74
712.031	30829.95
712.375	30604.65
712.719	30584.08
713.063	30692.33
713.407	30630.41
713.75	30523.97
714.094	30418.44
714.438	30394.03
714.782	30392.22
715.125	30280.14
715.469	30384.99
715.812	30126.69
716.156	30167.37
716.499	30179.8
716.843	30095.28
717.186	29960.82
717.53	30166.92
717.873	30099.8
718.216	30082.63
718.559	30065
718.902	29792.24
719.246	29800.37
719.589	29817.55
719.932	29729.19
720.275	29808.51
720.617	29819.58
720.96	29739.36
721.303	29771.9
721.646	29813.93
721.989	29610.1
722.331	29746.82
722.674	29573.49
723.016	29605.58
723.359	29547.95
723.701	29519.03
724.044	29547.27
724.386	29393.83
724.729	29547.27
725.071	29536.65
725.413	29606.93
725.755	29505.02
726.097	29382.08
726.439	29466.15
726.782	29304.34
727.124	29678.57
727.465	29509.08
727.807	29376.88
728.149	29474.28
728.491	29401.06
728.833	29566.26
729.175	29552.92
729.516	29388.18
729.858	29385.24
730.199	29576.2
730.541	29512.02
730.882	29465.92
731.224	29559.25
731.565	29474.96
731.906	29515.18
732.248	29701.17
732.589	29476.99
732.93	29456.2
733.271	29559.25
733.612	29628.18
733.953	29719.7
734.294	29690.1
734.635	29552.25
734.976	29769.19
735.317	29675.86
735.658	29771.9
735.999	29598.8
736.339	29812.13
736.68	29900.71
737.021	29772.58
737.361	29849.86
737.702	29995.85
738.042	29952.69
738.383	30031.1
738.723	30171.66
739.063	30016.41
739.404	30204.43
739.744	30349.96
740.084	30253.92
740.424	30361.49
740.764	30375.27
741.104	30532.78
741.444	30429.51
741.784	30381.83
742.124	30711.54
742.464	30846.45
742.804	30721.25
743.143	30737.75
743.483	30942.04
743.823	30936.84
744.162	30980.46
744.502	31250.05
744.841	31093.22
745.181	31436.72
745.52	31432.65
745.86	31638.97
746.199	31701.34
746.538	31697.27
746.877	31994.44
747.216	32007.55
747.556	31963.26
747.895	32228.11
748.234	32231.95
748.573	32350.82
748.911	32431.04
749.25	32626.74
749.589	32625.39
749.928	32852.72
750.267	32920.74
750.605	33087.97
750.944	33242.32
751.283	33264.24
751.621	33498.81
751.96	33526.15
752.298	33600.05
752.636	33800.95
752.975	33634.85
753.313	33836.65
753.651	34246.13
753.989	34206.36
754.327	34497.43
754.666	34243.87
755.004	34569.29
755.342	34869.62
755.679	34911.43
756.017	34881.6
756.355	35021.93
756.693	35176.28
757.031	35412.66
757.368	35330.17
757.706	35668.47
758.044	35675.7
758.381	35724.29
758.719	35653.78
759.056	35874.79
759.394	35969.25
759.731	36043.37
760.068	36097.38
760.405	36195.91
760.743	36148
761.08	36432.06
761.417	36310.26
761.754	36411.73
762.091	36583.02
762.428	36486.75
762.765	36506.41
763.102	36636.35
763.438	36587.09
763.775	36653.08
764.112	36651.27
764.449	36854.65
764.785	36794.54
765.122	36769.23
765.458	36669.8
765.795	36734.88
766.131	36924.03
766.467	36802.45
766.804	36687.43
767.14	36633.19
767.476	36658.73
767.812	36648.78
768.148	36794.77
768.485	36764.03
768.821	36524.72
769.157	36486.07
769.492	36574.89
769.828	36573.76
770.164	36321.11
770.5	36292.41
770.836	36460.99
771.171	36336.02
771.507	36273.42
771.842	36038.85
772.178	36093.54
772.513	36142.81
772.849	35984.17
773.184	35967.9
773.519	36005.18
773.855	35809.03
774.19	35803.38
774.525	35670.73
774.86	35777.62
775.195	35535.14
775.53	35569.49
775.865	35360
776.2	35188.03
776.535	34953.23
776.87	35073.23
777.205	34963.85
777.539	34750.75
777.874	34907.58
778.209	34501.49
778.543	34698.78
778.878	34460.14
779.212	34464.66
779.547	34275.06
779.881	34455.62
780.215	34029.87
780.55	34154.16
780.884	33975.41
781.218	33798.69
781.552	33848.18
781.886	33682.31
782.22	33573.61
782.554	33465.14
782.888	33263.79
783.222	33169.33
783.556	32984.92
783.889	33027.63
784.223	32696.34
784.557	32878.71
784.89	32952.83
785.224	32549
785.557	32485.05
785.891	32436.69
786.224	32439.4
786.558	32295.9
786.891	32138.17
787.224	31846.87
787.557	31861.79
787.891	31801.45
788.224	31537.96
788.557	31565.07
788.89	31570.27
789.223	31438.98
789.556	31247.57
789.888	31298.41
790.221	31069.49
790.554	31064.3
790.887	31057.52
791.219	30827.92
791.552	30810.74
791.884	30721.03
792.217	30591.09
792.549	30602.61
792.882	30333.24
793.214	30249.63
793.546	30207.37
793.879	30171.66
794.211	29771.22
794.543	29959.01
794.875	29826.36
795.207	29887.6
795.539	29806.48
795.871	29729.64
796.203	29477.45
796.535	29337.56
796.867	29377.11
797.198	29141.18
797.53	29270.45
797.862	28936.89
798.193	29120.17
798.525	28881.75
798.856	28962.43
799.188	28477.7
799.519	28484.25
799.85	28446.96
800.182	28493.74
800.513	28501.2
800.844	27985.06
801.175	28383.24
801.506	28338.49
801.837	28042.45
802.168	27981.21
802.499	27975.56
802.83	27741.45
803.161	27649.47
803.491	27659.64
803.822	27882.46
804.153	27484.5
804.483	27428.91
804.814	27214
805.145	27338.97
805.475	27206.32
805.805	27241.8
806.136	27226.66
806.466	27080.22
806.796	27027.34
807.126	26842.94
807.457	26818.98
807.787	26780.12
808.117	26812.88
808.447	26554.58
808.777	26612.66
809.107	26441.37
809.436	26441.14
809.766	26375.83
810.096	26454.47
810.426	26236.17
810.755	26280.47
811.085	26095.16
811.414	26116.86
811.744	26062.85
812.073	25989.4
812.403	25908.5
812.732	25831.44
813.061	25888.84
813.39	25708.5
813.719	25598
814.049	25762.74
814.378	25621.95
814.707	25495.4
815.036	25614.27
815.365	25402.52
815.693	25302.41
816.022	25245.69
816.351	25190.33
816.68	24964.34
817.008	25160.5
817.337	24871.24
817.665	25021.52
817.994	24860.84
818.322	25047.05
818.651	24859.04
818.979	24887.74
819.307	24907.85
819.636	24792.6
819.964	24696.33
820.292	24725.03
820.62	24634.18
820.948	24606.16
821.276	24753.73
821.604	24676.22
821.932	24809.32
822.259	24682.09
822.587	24682.09
822.915	24606.84
823.243	24694.75
823.57	24554.18
823.898	24768.19
824.225	24602.09
824.553	24519.16
824.88	24614.75
825.207	24696.78
825.535	24615.88
825.862	24681.64
826.189	24605.26
826.516	24820.62
826.843	24750.11
827.17	24836.21
827.497	24772.94
827.824	24710.11
828.151	24895.87
828.478	24708.76
828.805	24902.42
829.131	24753.05
829.458	24783.78
829.785	24571.59
830.111	24600.06
830.438	24814.29
830.764	24729.32
831.09	24793.5
831.417	24675.54
831.743	24821.75
832.069	24651.81
832.395	24688.87
832.722	24745.14
833.048	24525.49
833.374	24739.04
833.7	24554.86
834.026	24669.44
834.351	24569.78
834.677	24656.33
835.003	24518.03
835.329	24571.59
835.654	24481.19
835.98	24457.46
836.306	24522.32
836.631	24405.71
836.956	24517.8
837.282	24464.7
837.607	24372.04
837.932	24471.25
838.258	24285.04
838.583	24374.08
838.908	24320.07
839.233	24344.92
839.558	24067.42
839.883	24114.87
840.208	24007.31
840.533	24104.71
840.858	24008.89
841.182	24082.78
841.507	23914.2
841.832	23843.7
842.156	23833.53
842.481	23770.25
842.805	23764.6
843.13	23711.04
843.454	23654.55
843.778	23550.14
844.103	23565.28
844.427	23517.83
844.751	23539.07
845.075	23503.59
845.399	23444.61
845.723	23341.56
846.047	23343.82
846.371	23133.66
846.695	23084.39
847.019	23045.3
847.343	22779.09
847.666	22821.8
847.99	22722.37
848.313	22561.69
848.637	22541.13
848.96	22599.43
849.284	22476.05
849.607	22202.16
849.931	22124.64
850.254	22127.36
850.577	22047.81
850.9	21892.11
851.223	21857.76
851.546	21747.03
851.869	21690.98
852.192	21787.25
852.515	21441.72
852.838	21443.98
853.161	21486.69
853.483	21148.4
853.806	21266.81
854.129	21216.87
854.451	21133.26
854.774	21002.87
855.096	20927.16
855.419	20792.25
855.741	20761.52
856.063	20775.98
856.385	20648.75
856.708	20590.22
857.03	20601.29
857.352	20522.65
857.674	20656.43
857.996	20381.64
858.318	20298.03
858.64	20308.42
858.961	20291.92
859.283	20052.83
859.605	19984.36
859.926	20122.21
860.248	20027.98
860.57	19928.54
860.891	19982.33
861.212	19912.73
861.534	19817.59
861.855	19665.05
862.176	19694.43
862.498	19764.71
862.819	19706.18
863.14	19554.09
863.461	19568.1
863.782	19479.29
864.103	19560.87
864.424	19564.26
864.745	19460.99
865.065	19291.27
865.386	19195.46
865.707	19318.84
866.027	19374.66
866.348	19223.7
866.668	19175.12
866.989	19195.68
867.309	19086.08
867.63	19043.37
867.95	19146.87
868.27	19011.51
868.59	19030.26
868.91	18987.55
869.23	18908.01
869.55	18830.27
869.87	18988.46
870.19	18784.39
870.51	18828.91
870.83	18850.15
871.15	18733.1
871.469	18625.75
871.789	18723.38
872.109	18701.23
872.428	18661.68
872.748	18701.68
873.067	18581.91
873.386	18616.71
873.706	18605.19
874.025	18537.85
874.344	18495.14
874.663	18452.2
874.982	18320.45
875.301	18405.87
875.62	18424.4
875.939	18190.51
876.258	18260.79
876.577	18153.9
876.896	18119.33
877.214	18174.24
877.533	18273.9
877.852	18230.96
878.17	18137.18
878.489	18152.09
878.807	18011.98
879.125	17992.55
879.444	18013.34
879.762	18023.51
880.08	18011.76
880.398	17960.46
880.716	17966.79
881.034	17877.75
881.352	17887.92
881.67	17763.85
881.988	17764.98
882.306	17663.97
882.624	17701.94
882.941	17561.83
883.259	17642.05
883.577	17588.49
883.894	17480.92
884.212	17469.63
884.529	17322.28
884.846	17353.7
885.164	17200.48
885.481	17235.96
885.798	17220.14
886.115	17128.17
886.432	17261.5
886.75	17196.19
887.067	17192.57
887.383	17084.32
887.7	16927.72
888.017	16900.6
888.334	16906.48
888.651	16834.84
888.967	16789.87
889.284	16697.67
889.6	16766.59
889.917	16625.81
890.233	16628.07
890.55	16591.23
890.866	16591.23
891.182	16534.96
891.498	16459.71
891.815	16350.56
892.131	16290.9
892.447	16323.21
892.763	16221.3
893.079	16150.56
893.395	16104.69
893.71	16102.66
894.026	15984.01
894.342	16028.53
894.657	15919.61
894.973	15883.45
895.289	15796
895.604	15809.56
895.92	15746.96
896.235	15667.41
896.55	15655.21
896.865	15567.53
897.181	15501.54
897.496	15555.33
897.811	15386.52
898.126	15373.18
898.441	15381.77
898.756	15287.54
899.071	15290.02
899.386	15233.53
899.7	15075.34
900.015	15024.04
900.33	14948.56
900.644	14931.39
900.959	14838.73
901.273	14808.9
901.588	14814.55
901.902	14801.22
902.216	14681.45
902.531	14651.17
902.845	14578.18
903.159	14431.06
903.473	14422.93
903.787	14398.29
904.101	14341.35
904.415	14176.38
904.729	14261.57
905.042	14092.77
905.356	14123.5
905.67	14126.21
905.984	14130.73
906.297	14069.26
906.611	13928.02
906.924	13869.27
907.237	13811.87
907.551	13756.28
907.864	13688.26
908.177	13688.71
908.491	13643.74
908.804	13478.09
909.117	13526
909.43	13473.35
909.743	13342.73
910.056	13340.24
910.368	13310.86
910.681	13146.35
910.994	13174.15
911.307	13120.36
911.619	13036.3
911.932	13008.5
912.244	12936.19
912.557	12934.6
912.869	12910.88
913.181	12771.22
913.494	12752.91
913.806	12707.26
914.118	12629.53
914.43	12565.57
914.742	12635.4
915.054	12500.72
915.366	12415.97
915.678	12411.91
915.99	12330.1
916.302	12254.17
916.613	12226.37
916.925	12178.69
917.236	12224.11
917.548	12063.21
917.859	12033.38
918.171	12025.25
918.482	11847.63
918.794	11932.6
919.105	11849.43
919.416	11751.13
919.727	11804.46
920.038	11740.28
920.349	11644.92
920.66	11562.89
920.971	11549.78
921.282	11515.43
921.593	11467.75
921.903	11357.92
922.214	11356.57
922.525	11257.36
922.835	11260.07
923.146	11210.58
923.456	11112.28
923.767	11073.64
924.077	11072.05
924.387	11061.43
924.697	10970.36
925.008	10868.44
925.318	10892.4
925.628	10891.95
925.938	10787.09
926.248	10718.16
926.558	10681.1
926.867	10672.52
927.177	10551.16
927.487	10523.82
927.796	10500.77
928.106	10426.65
928.416	10474.56
928.725	10335.8
929.034	10325.41
929.344	10347.55
929.653	10266.65
929.962	10180.55
930.271	10112.3
930.581	10150.95
930.89	10102.59
931.199	10083.15
931.508	9941.24
931.817	9968.35
932.125	9930.61
932.434	9827.79
932.743	9723.61
933.051	9728.36
933.36	9763.61
933.669	9665.08
933.977	9656.95
934.286	9649.04
934.594	9560.45
934.902	9520.91
935.21	9457.86
935.519	9366.11
935.827	9440.23
936.135	9414.02
936.443	9279.33
936.751	9249.28
937.059	9213.12
937.367	9123.86
937.674	9193.68
937.982	9129.05
938.29	9012.67
938.597	9068.26
938.905	8952.34
939.213	8982.84
939.52	8904.43
939.827	8961.37
940.135	8873.47
940.442	8874.15
940.749	8754.6
941.056	8747.59
941.363	8640.93
941.67	8674.15
941.977	8596.86
942.284	8556.19
942.591	8584.89
942.898	8479.81
943.205	8510.54
943.511	8406.36
943.818	8405.46
944.125	8271.9
944.431	8293.6
944.738	8316.65
945.044	8293.14
945.35	8208.4
945.657	8106.93
945.963	8127.72
946.269	8118.46
946.575	8093.83
946.881	7990.78
947.187	7988.07
947.493	7996.43
947.799	7919.14
948.105	7859.71
948.41	7812.25
948.716	7845.02
949.022	7779.94
949.327	7769.09
949.633	7629.21
949.938	7661.3
950.244	7738.58
950.549	7577.46
950.854	7568.64
951.16	7551.69
951.465	7502.88
951.77	7447.52
952.075	7369.1
952.38	7402.77
952.685	7375.2
952.99	7319.61
953.294	7349.44
953.599	7221.53
953.904	7212.72
954.209	7160.29
954.513	7214.98
954.818	7149.22
955.122	7105.6
955.426	7106.28
955.731	7028.77
956.035	7028.32
956.339	6996.23
956.643	7003.91
956.948	6887.3
957.252	6836.23
957.556	6901.54
957.86	6845.72
958.163	6822
958.467	6774.54
958.771	6757.82
959.075	6748.55
959.378	6630.36
959.682	6657.71
959.985	6548.1
960.289	6567.09
960.592	6565.51
960.896	6524.83
961.199	6470.59
961.502	6491.83
961.805	6420.65
962.108	6355.34
962.411	6355.34
962.714	6274.21
963.017	6268.11
963.32	6285.96
963.623	6280.99
963.926	6260.65
964.228	6172.75
964.531	6188.34
964.833	6181.33
965.136	6160.32
965.438	6123.94
965.741	6042.13
966.043	6018.4
966.345	6048
966.648	5996.48
966.95	5955.58
967.252	5994.9
967.554	5888.46
967.856	5891.17
968.158	5888.24
968.46	5847.78
968.761	5779.76
969.063	5790.61
969.365	5785.19
969.666	5730.95
969.968	5643.04
970.269	5636.04
970.571	5683.72
970.872	5623.16
971.174	5541.13
971.475	5586.1
971.776	5557.17
972.077	5485.31
972.378	5473.78
972.679	5441.69
972.98	5414.58
973.281	5428.59
973.582	5399.21
973.883	5367.34
974.183	5354.46
974.484	5276.05
974.785	5287.12
975.085	5272.66
975.386	5288.25
975.686	5249.61
975.986	5214.58
976.287	5187.24
976.587	5123.28
976.887	5131.19
977.187	5143.62
977.487	5152.44
977.787	5048.94
978.087	5019.11
978.387	5037.64
978.687	5052.32
978.987	5009.39
979.286	4967.81
979.586	4927.58
979.885	4923.74
980.185	4913.8
980.484	4845.78
980.784	4855.49
981.083	4836.74
981.382	4875.61
981.682	4815.27
981.981	4736.17
982.28	4699.57
982.579	4705.22
982.878	4688.49
983.177	4642.84
983.475	4660.02
983.774	4636.52
984.073	4585.44
984.372	4562.17
984.67	4545.67
984.969	4573.02
985.267	4499.12
985.566	4469.74
985.864	4437.2
986.162	4445.56
986.461	4431.78
986.759	4439.91
987.057	4385
987.355	4311.78
987.653	4328.73
987.951	4320.37
988.249	4297.77
988.547	4319.69
988.844	4280.82
989.142	4247.83
989.44	4180.03
989.737	4170.54
990.035	4195.62
990.332	4159.92
990.63	4158.11
990.927	4126.25
991.224	4099.81
991.521	4092.8
991.819	4039.47
992.116	4044.22
992.413	4031.79
992.71	4026.36
993.006	3984.1
993.303	3983.65
993.6	3962.41
993.897	3929.64
994.193	3945.24
994.49	3865.24
994.787	3857.55
995.083	3839.48
995.379	3868.63
995.676	3801.74
995.972	3771.23
996.268	3745.92
996.565	3719.93
996.861	3717.22
997.157	3727.61
997.453	3642.19
997.749	3665.47
998.044	3667.05
998.34	3615.3
998.636	3604
998.932	3587.73
999.227	3559.26
999.523	3566.94
999.818	3540.5
1000.114	3515.64
1000.409	3497.56
1000.704	3456.66
1001	3420.96
1001.295	3408.07
1001.59	3432.25
1001.885	3397.68
1002.18	3367.85
1002.475	3343.67
1002.77	3306.83
1003.065	3306.61
1003.359	3286.04
1003.654	3303.22
1003.949	3238.81
1004.243	3247.17
1004.538	3219.83
1004.832	3197.91
1005.127	3179.61
1005.421	3196.1
1005.715	3201.75
1006.009	3127.18
1006.304	3145.48
1006.598	3089.89
1006.892	3109.78
1007.186	3025.71
1007.48	3074.07
1007.773	3013.73
1008.067	2980.29
1008.361	2992.27
1008.655	2962.66
1008.948	2958.59
1009.242	2937.35
1009.535	2942.1
1009.829	2891.48
1010.122	2902.1
1010.415	2862.78
1010.708	2846.96
1011.001	2825.04
1011.295	2804.7
1011.588	2783.91
1011.881	2782.1
1012.173	2759.5
1012.466	2724.02
1012.759	2768.77
1013.052	2719.28
1013.344	2695.32
1013.637	2648.55
1013.93	2666.62
1014.222	2594.54
1014.514	2633.41
1014.807	2606.06
1015.099	2579.4
1015.391	2566.29
1015.683	2565.61
1015.976	2543.92
1016.268	2491.04
1016.56	2512.05
1016.851	2505.05
1017.143	2448.1
1017.435	2437.25
1017.727	2435.9
1018.018	2442.22
1018.31	2413.07
1018.602	2398.16
1018.893	2398.38
1019.185	2351.83
1019.476	2314.09
1019.767	2309.8
1020.058	2271.15
1020.35	2294.88
1020.641	2292.4
1020.932	2279.97
1021.223	2258.5
1021.514	2234.32
1021.804	2227.99
1022.095	2218.05
1022.386	2202.68
1022.677	2177.82
1022.967	2174.21
1023.258	2119.29
1023.548	2117.03
1023.839	2102.8
1024.129	2097.6
1024.419	2090.82
1024.709	2087.43
1025	2023.25
1025.29	2062.8
1025.58	2002.91
1025.87	1981.9
1026.16	1990.48
1026.449	1968.56
1026.739	1972.63
1027.029	1930.15
1027.319	1955.01
1027.608	1922.92
1027.898	1893.99
1028.187	1891.05
1028.477	1914.33
1028.766	1886.08
1029.055	1832.75
1029.344	1860.77
1029.634	1813.54
1029.923	1826.65
1030.212	1819.64
1030.501	1788.91
1030.79	1790.72
1031.078	1776.25
1031.367	1737.61
1031.656	1736.93
1031.945	1733.77
1032.233	1711.85
1032.522	1665.97
1032.81	1673.2
1033.099	1692.41
1033.387	1691.06
1033.675	1651.06
1033.963	1604.51
1034.251	1629.82
1034.54	1597.05
1034.828	1593.66
1035.116	1584.39
1035.403	1585.52
1035.691	1568.57
1035.979	1567.67
1036.267	1544.62
1036.554	1522.7
1036.842	1532.42
1037.129	1536.94
1037.417	1512.76
1037.704	1530.61
1037.992	1463.94
1038.279	1465.75
1038.566	1449.48
1038.853	1449.48
1039.14	1449.48
