Data from 635_FLMS001491_003.txt Node
Date: Thu Apr 19 16:46:19 BST 2018
User: hsy
Spectrometer: FLMS00149
Trigger mode: 0
Integration Time (sec): 1.000000E-2
Scans to average: 10
Electric dark correction enabled: true
Nonlinearity correction enabled: false
Boxcar width: 0
XAxis mode: Wavelengths
Number of Pixels in Spectrum: 2048
>>>>>Begin Spectral Data<<<<<
341.393	-22.27
341.776	-22.27
342.16	-22.27
342.543	-51.65
342.927	-59.11
343.31	-69.5
343.693	-77.87
344.077	-74.48
344.46	-56.4
344.843	-57.3
345.226	-43.97
345.61	-17.08
345.993	-15.95
346.376	-18.43
346.759	7.1
347.142	13.66
347.525	39.19
347.908	69.48
348.291	91.4
348.674	93.88
349.057	116.25
349.44	118.51
349.823	148.12
350.206	164.16
350.588	216.36
350.971	263.82
351.354	247.32
351.737	283.26
352.119	285.97
352.502	275.57
352.884	306.76
353.267	319.19
353.65	295.23
354.032	356.47
354.414	350.37
354.797	340.43
355.179	351.73
355.562	353.54
355.944	365.29
356.326	355.12
356.709	370.48
357.091	359.19
357.473	369.35
357.855	362.8
358.238	368.68
358.62	372.29
359.002	382.91
359.384	376.36
359.766	382.69
360.148	364.61
360.53	364.16
360.912	368.9
361.294	380.88
361.676	357.6
362.057	358.96
362.439	365.51
362.821	370.03
363.203	361.9
363.584	366.64
363.966	370.48
364.348	368.22
364.729	350.82
365.111	360.32
365.493	375.23
365.874	344.95
366.256	358.28
366.637	346.53
367.019	363.48
367.4	371.61
367.781	352.41
368.163	352.41
368.544	372.52
368.925	356.02
369.306	356.25
369.688	373.65
370.069	360.32
370.45	359.19
370.831	354.67
371.212	353.54
371.593	375.23
371.974	355.34
372.355	360.99
372.736	360.09
373.117	370.03
373.498	377.49
373.879	361.67
374.26	374.1
374.641	367.09
375.021	388.79
375.402	398.51
375.783	375.23
376.163	392.18
376.544	382.46
376.925	377.26
377.305	389.92
377.686	408.68
378.066	385.17
378.447	387.43
378.827	396.92
379.208	393.53
379.588	400.77
379.968	391.5
380.349	409.58
380.729	405.51
381.109	409.13
381.489	415
381.87	412.74
382.25	408.22
382.63	427.43
383.01	429.24
383.39	437.83
383.77	426.08
384.15	430.14
384.53	421.33
384.91	429.01
385.29	430.37
385.67	439.18
386.049	450.03
386.429	434.44
386.809	443.48
387.189	456.36
387.568	457.04
387.948	478.28
388.328	442.35
388.707	473.76
389.087	466.98
389.466	468.11
389.846	495.23
390.225	471.72
390.605	476.24
390.984	495.91
391.363	498.16
391.743	495.91
392.122	497.49
392.501	495.68
392.881	494.1
393.26	539.75
393.639	513.53
394.018	518.05
394.397	535.68
394.776	543.59
395.155	512.18
395.534	540.42
395.913	545.85
396.292	531.38
396.671	546.75
397.05	565.28
397.429	562.57
397.808	564.38
398.186	560.08
398.565	601.21
398.944	578.39
399.323	608.44
399.701	587.65
400.08	606.64
400.458	605.28
400.837	631.04
401.215	633.53
401.594	644.15
401.972	625.62
402.351	627.65
402.729	638.05
403.107	636.47
403.486	654.32
403.864	673.08
404.242	667.43
404.62	677.14
404.999	695
405.377	699.06
405.755	690.48
406.133	712.62
406.511	723.7
406.889	759.85
407.267	767.31
407.645	783.13
408.023	790.81
408.401	792.85
408.779	793.98
409.156	824.71
409.534	851.6
409.912	860.87
410.29	865.39
410.667	869.45
411.045	891.83
411.422	902.9
411.8	946.29
412.178	962.33
412.555	986.74
412.933	974.99
413.31	1003.46
413.687	1013.18
414.065	1033.74
414.442	1055.66
414.819	1067.64
415.197	1068.55
415.574	1124.36
415.951	1104.25
416.328	1125.94
416.705	1150.8
417.082	1176.34
417.46	1173.63
417.837	1186.28
418.214	1200.75
418.591	1233.29
418.967	1238.03
419.344	1243.46
419.721	1316.45
420.098	1272.61
420.475	1301.08
420.852	1291.36
421.228	1332.49
421.605	1336.33
421.982	1353.74
422.358	1381.08
422.735	1381.31
423.111	1426.95
423.488	1456.11
423.864	1448.42
424.241	1496.33
424.617	1501.75
424.994	1531.36
425.37	1539.04
425.746	1537.23
426.123	1558.48
426.499	1586.27
426.875	1605.71
427.251	1657.91
427.627	1647.51
428.003	1647.74
428.379	1720.73
428.756	1736.55
429.132	1727.51
429.507	1765.02
429.883	1772.93
430.259	1805.48
430.635	1844.57
431.011	1835.98
431.387	1908.52
431.763	1917.11
432.138	1967.05
432.514	1995.98
432.89	1993.49
433.265	2044.34
433.641	2084.11
434.016	2081.4
434.392	2106.94
434.767	2190.78
435.143	2190.32
435.518	2215.41
435.894	2251.79
436.269	2247.5
436.644	2313.94
437.02	2356.87
437.395	2386.02
437.77	2418.34
438.145	2413.14
438.52	2436.64
438.895	2519.58
439.271	2510.32
439.646	2543.99
440.021	2569.07
440.395	2587.83
440.77	2558.22
441.145	2590.99
441.52	2665.11
441.895	2717.09
442.27	2715.51
442.645	2695.17
443.019	2776.75
443.394	2774.04
443.769	2795.73
444.143	2763.19
444.518	2819.91
444.892	2826.92
445.267	2857.42
445.641	2878.67
446.016	2870.31
446.39	2951.43
446.764	2921.83
447.139	2915.95
447.513	2980.59
447.887	2950.53
448.262	2985.33
448.636	3053.13
449.01	3063.52
449.384	3097.42
449.758	3131.54
450.132	3198.66
450.506	3187.81
450.88	3222.61
451.254	3226.91
451.628	3271.43
452.002	3330.63
452.376	3372.89
452.75	3411.53
453.123	3398.2
453.497	3452.21
453.871	3492.21
454.244	3610.17
454.618	3618.76
454.992	3673.22
455.365	3670.74
455.739	3741.02
456.112	3809.26
456.486	3865.31
456.859	3890.17
457.232	3949.15
457.606	3983.95
457.979	4076.83
458.352	4157.5
458.725	4147.11
459.099	4226.88
459.472	4239.08
459.845	4332.41
460.218	4392.07
460.591	4446.31
460.964	4505.52
461.337	4571.73
461.71	4633.2
462.083	4673.42
462.456	4756.36
462.829	4725.85
463.201	4884.94
463.574	4858.5
463.947	4950.48
464.32	5018.05
464.692	5113.64
465.065	5143.24
465.438	5212.17
465.81	5274.08
466.183	5292.84
466.555	5393.63
466.928	5439.28
467.3	5426.17
467.672	5537.58
468.045	5650.8
468.417	5750.91
468.789	5775.77
469.161	5848.31
469.534	5875.2
469.906	6022.54
470.278	6115.64
470.65	6139.6
471.022	6294.4
471.394	6340.95
471.766	6400.61
472.138	6494.17
472.51	6629.53
472.882	6740.26
473.253	6762.41
473.625	6898.9
473.997	7002.17
474.369	7100.25
474.74	7185.9
475.112	7333.24
475.484	7468.6
475.855	7521.26
476.227	7653
476.598	7891.87
476.97	7883.51
477.341	8109.04
477.713	8250.05
478.084	8248.7
478.455	8528.24
478.827	8622.47
479.198	8807.55
479.569	8897.94
479.94	9047.54
480.311	9163.02
480.682	9357.59
481.053	9588.1
481.424	9794.64
481.795	9864.47
482.166	10008.42
482.537	10149.89
482.908	10357.11
483.279	10489.31
483.65	10774.28
484.021	10942.41
484.391	11042.97
484.762	11192.12
485.133	11351.66
485.503	11441.83
485.874	11792.78
486.244	11855.83
486.615	12175.6
486.985	12271.64
487.356	12575.14
487.726	12570.39
488.097	12951.17
488.467	13084.5
488.837	13276.81
489.207	13399.29
489.578	13727.2
489.948	13871.82
490.318	14048.77
490.688	14136.9
491.058	14371.92
491.428	14588.87
491.798	14773.5
492.168	15085.13
492.538	15104.11
492.908	15311.79
493.278	15497.54
493.648	15666.58
494.017	15936.18
494.387	16079.68
494.757	16237.41
495.126	16386.11
495.496	16524.86
495.866	16676.27
496.235	16922.59
496.605	17058.86
496.974	17135.69
497.344	17321.68
497.713	17446.19
498.082	17604.16
498.452	17773.87
498.821	17888.44
499.19	17990.13
499.559	18253.4
499.928	18386.06
500.298	18511.48
500.667	18712.6
501.036	18704.01
501.405	18913.5
501.774	19010.67
502.143	19206.37
502.512	19336.31
502.88	19476.42
503.249	19367.27
503.618	19651.33
503.987	19781.5
504.356	19910.76
504.724	20054.71
505.093	20218.32
505.462	20260.13
505.83	20382.61
506.199	20589.84
506.567	20779.21
506.936	20898.08
507.304	21027.12
507.672	21161.8
508.041	21225.53
508.409	21416.48
508.777	21568.12
509.145	21873.42
509.514	21811.5
509.882	22093.08
510.25	22114.32
510.618	22326.29
510.986	22319.51
511.354	22564.25
511.722	22707.98
512.09	22910
512.458	22887.63
512.826	23191.81
513.193	23301.63
513.561	23377.79
513.929	23393.83
514.297	23696.88
514.664	23826.82
515.032	24030.2
515.4	24235.85
515.767	24288.73
516.135	24460.92
516.502	24269.74
516.869	24768.49
517.237	24766
517.604	24740.47
517.972	25252.32
518.339	25317.17
518.706	25392.65
519.073	25419.77
519.44	25577.73
519.808	25876.48
520.175	25884.16
520.542	26188.34
520.909	26158.51
521.276	26362.34
521.643	26699.51
522.009	26778.83
522.376	26958.94
522.743	27104.47
523.11	27426.04
523.477	27595.76
523.843	27680.5
524.21	27944.9
524.577	28140.15
524.943	28197.78
525.31	28426.7
525.676	28699.01
526.043	28871.2
526.409	28920.92
526.776	29225.32
527.142	29399.1
527.508	29457.4
527.874	29729.94
528.241	29808.13
528.607	29983.27
528.973	30208.34
529.339	30222.81
529.705	30405.85
530.071	30643.81
530.437	30851.94
530.803	30972.17
531.169	31001.09
531.535	31070.69
531.901	31190.24
532.267	31286.73
532.632	31507.52
532.998	31480.85
533.364	31621.64
533.73	31703.67
534.095	31934.4
534.461	31937.79
534.826	32073.38
535.192	32044.68
535.557	32259.82
535.923	32301.62
536.288	32380.04
536.653	32422.75
537.019	32462.97
537.384	32451.22
537.749	32624.1
538.114	32616.19
538.479	32551.33
538.845	32630.88
539.21	32578.23
539.575	32672.46
539.94	32770.31
540.305	32848.73
540.67	32734.61
541.034	32901.15
541.399	32855.51
541.764	33020.93
542.129	33032.45
542.494	33017.54
542.858	33058.89
543.223	32970.31
543.587	33055.5
543.952	33051.21
544.316	33161.03
544.681	33007.14
545.045	33219.79
545.41	33383.18
545.774	33196.06
546.138	33139.34
546.503	33189.73
546.867	33219.79
547.231	33411.42
547.595	33428.6
547.959	33414.81
548.324	33290.52
548.688	33346.11
549.052	33406.68
549.416	33322.39
549.779	33375.04
550.143	33347.47
550.507	33585.2
550.871	33605.77
551.235	33446.45
551.599	33596.73
551.962	33631.53
552.326	33704.75
552.689	33682.15
553.053	33433.12
553.417	33656.62
553.78	33940.22
554.143	33815.93
554.507	33763.5
554.87	33995.14
555.234	34160.78
555.597	33883.95
555.96	33973.89
556.323	34057.96
556.686	33898.87
557.05	34268.35
557.413	34003.72
557.776	34273.77
558.139	34417.95
558.502	34347.22
558.865	34242.81
559.228	34402.13
559.59	34512.64
559.953	34454.56
560.316	34598.06
560.679	34633.09
561.041	34920.99
561.404	34805.51
561.767	34940.88
562.129	34907.88
562.492	35217.7
562.854	35086.18
563.217	35160.53
563.579	35177.48
563.941	35264.48
564.304	35427.87
564.666	35591.25
565.028	35556.68
565.39	35731.81
565.753	35857.24
566.115	35763.45
566.477	35970.9
566.839	35940.85
567.201	36209.09
567.563	36084.35
567.925	36184.01
568.287	36414.06
568.648	36409.99
569.01	36691.34
569.372	36687.27
569.734	36543.54
570.095	36831.9
570.457	36845.01
570.819	36815.85
571.18	36917.77
571.542	37115.28
571.903	37061.27
572.265	37217.2
572.626	37360.92
572.987	37256.52
573.349	37387.59
573.71	37563.86
574.071	37684.53
574.432	37851.53
574.794	37792.33
575.155	37773.34
575.516	37697.41
575.877	37905.32
576.238	37908.25
576.599	37828.71
576.96	37923.17
577.32	37996.39
577.681	37959.33
578.042	38200.45
578.403	37984.86
578.763	38183.95
579.124	38162.03
579.485	38328.36
579.845	38347.79
580.206	38137.4
580.566	38141.02
580.927	38162.03
581.287	38140.34
581.648	38104.63
582.008	38219.88
582.368	38286.1
582.728	38171.75
583.089	38352.54
583.449	38211.3
583.809	38308.92
584.169	38349.37
584.529	37993.22
584.889	38405.87
585.249	38052.21
585.609	38053.56
585.969	38108.93
586.329	38008.14
586.688	38235.7
587.048	38158.87
587.408	37911.19
587.768	38006.78
588.127	37890.63
588.487	37828.26
588.846	38152.09
589.206	37751.42
589.565	37821.48
589.925	37977.18
590.284	37780.35
590.643	37907.35
591.003	37867.13
591.362	38220.11
591.721	37887.92
592.08	37966.78
592.44	38045.2
592.799	37937.18
593.158	37896.96
593.517	37734.7
593.876	37944.64
594.235	37693.57
594.593	37789.61
594.952	37788.03
595.311	37722.5
595.67	37724.3
596.029	38018.53
596.387	37874.81
596.746	37957.97
597.104	37703.29
597.463	37740.8
597.822	37949.61
598.18	37818.99
598.538	37772.89
598.897	38047.01
599.255	37745.77
599.613	38138.98
599.972	37933.56
600.33	37894.92
600.688	37844.75
601.046	37910.51
601.404	38180.11
601.762	38100.79
602.12	38119.1
602.478	38208.36
602.836	38153.22
603.194	37956.84
603.552	38018.99
603.91	38003.85
604.268	38092.43
604.625	38087.91
604.983	38338.07
605.341	38055.6
605.698	38298.3
606.056	38455.81
606.413	38241.58
606.771	38489.03
607.128	38421.91
607.485	38441.35
607.843	38338.3
608.2	38486.54
608.557	38647.9
608.914	38590.04
609.272	38805.63
609.629	38910.71
609.986	38893.54
610.343	38950.49
610.7	39163.59
611.057	38952.07
611.414	39021.67
611.771	39205.4
612.127	39185.28
612.484	39301.21
612.841	39333.3
613.198	39141.22
613.554	39200.88
613.911	39369.91
614.267	39398.38
614.624	39365.17
614.98	39489.91
615.337	39700.98
615.693	39613.52
616.05	39732.16
616.406	39800.41
616.762	39794.98
617.118	39867.75
617.475	39866.17
617.831	40012.15
618.187	40124.69
618.543	40173.05
618.899	40300.51
619.255	40220.06
619.611	40070.91
619.967	40397.91
620.323	40465.93
620.678	40278.14
621.034	40357.91
621.39	40315.65
621.746	40335.54
622.101	40885.13
622.457	40334.86
622.812	40597
623.168	40700.05
623.523	40592.48
623.879	40792.47
624.234	40589.54
624.589	40783.21
624.945	40714.73
625.3	40852.36
625.655	40823.43
626.01	40807.61
626.365	40775.3
626.72	40684.9
627.075	40628.41
627.43	40628.41
627.785	40691.46
628.14	40692.59
628.495	40625.02
628.85	40815.75
629.205	40662.53
629.559	40871.11
629.914	40715.41
630.269	40752.47
630.623	40531.46
630.978	40488.53
631.332	40651.01
631.687	40605.58
632.041	40507.51
632.396	40600.39
632.75	40362.2
633.104	40592.03
633.459	40314.75
633.813	40328.98
634.167	40295.99
634.521	40357
634.875	40304.58
635.229	40109.1
635.583	39969.67
635.937	40084.24
636.291	40092.15
636.645	39948.65
636.999	39773.52
637.352	40080.85
637.706	39811.26
638.06	39894.87
638.413	39826.85
638.767	39603.35
639.121	39651.49
639.474	39643.58
639.828	39604.71
640.181	39663.46
640.534	39635.21
640.888	39518.38
641.241	39418.05
641.594	39456.69
641.947	39660.75
642.301	39415.11
642.654	39530.13
643.007	39341.44
643.36	39422.11
643.713	39325.17
644.066	39456.24
644.419	39293.08
644.771	38813.54
645.124	38611.29
645.477	38601.8
645.83	38371.07
646.182	38290.84
646.535	38327.45
646.888	38439.31
647.24	38119.32
647.593	38584.17
647.945	38372.88
648.298	38159.55
648.65	38129.04
649.002	37997.07
649.355	38015.6
649.707	38035.03
650.059	37989.61
650.411	38408.58
650.763	38652.19
651.115	39054.89
651.467	38973.09
651.819	39002.69
652.171	38918.85
652.523	38866.65
652.875	38899.42
653.227	38597.5
653.578	39062.8
653.93	38997.72
654.282	38931.28
654.633	38803.37
654.985	39026.87
655.337	38919.98
655.688	38973.76
656.039	39091.27
656.391	38722.92
656.742	38834.78
657.094	39073.42
657.445	39018.96
657.796	39065.74
658.147	38885.86
658.498	39134.44
658.849	39165.85
659.2	39051.95
659.551	39017.38
659.902	39350.25
660.253	39100.09
660.604	39239.29
660.955	39096.25
661.306	39233.19
661.656	39141.67
662.007	39197.71
662.358	39317.26
662.708	39244.26
663.059	39175.79
663.409	39027.55
663.76	39352.28
664.11	39329.91
664.461	39429.57
664.811	39569.68
665.161	39384.15
665.511	39334.43
665.862	39400.87
666.212	39499.17
666.562	39506.4
666.912	39476.12
667.262	39352.96
667.612	39432.96
667.962	39467.08
668.312	39343.02
668.662	39520.64
669.011	39474.32
669.361	39416.24
669.711	39431.38
670.06	39477.7
670.41	39258.5
670.76	39223.02
671.109	39405.84
671.459	39199.29
671.808	39323.13
672.157	39293.08
672.507	39006.76
672.856	39075
673.205	39246.52
673.554	39223.93
673.904	39183.7
674.253	39260.54
674.602	39169.69
674.951	38577.62
675.3	38478.18
675.649	39058.73
675.998	39052.86
676.346	39046.53
676.695	39083.14
677.044	38789.36
677.393	38996.59
677.741	38874.1
678.09	38852.64
678.438	38666.43
678.787	38947.1
679.135	38789.81
679.484	38526.54
679.832	38689.7
680.181	38586.88
680.529	38505.53
680.877	38374.01
681.225	38402.25
681.573	38640.44
681.922	38444.96
682.27	38265.99
682.618	38367.23
682.966	38149.38
683.314	38164.52
683.661	38148.25
684.009	37977.41
684.357	37858.76
684.705	37784.19
685.053	37849.05
685.4	37664.65
685.748	37591.65
686.095	37485.21
686.443	37337.42
686.79	37207.93
687.138	37479.34
687.485	37185.11
687.832	37195.73
688.18	37049.07
688.527	36837.1
688.874	36882.74
689.221	36787.83
689.568	36537.22
689.915	36425.36
690.262	36453.38
690.609	36306.26
690.956	36212.93
691.303	36268.52
691.65	35908.76
691.997	35932.71
692.344	35743.34
692.69	35748.09
693.037	35805.71
693.383	35396.46
693.73	35368.43
694.077	35256.8
694.423	35128.89
694.769	34996.47
695.116	35048.89
695.462	34755.12
695.808	34648
696.155	34680.54
696.501	34423.6
696.847	34410.72
697.193	34125.76
697.539	34154.46
697.885	33842.6
698.231	33728.25
698.577	33699.78
698.923	33583.62
699.269	33313.12
699.614	33307.47
699.96	33114.93
700.306	33173.46
700.651	32850.99
700.997	32796.07
701.342	32601.5
701.688	32589.52
702.033	32512.01
702.379	32406.25
702.724	32326.71
703.069	32274.73
703.415	31858.92
703.76	31984.12
704.105	31820.73
704.45	31704.8
704.795	31508.42
705.14	31450.57
705.485	31529.44
705.83	31246.28
706.175	31349.11
706.52	31287.19
706.865	31042.45
707.209	30862.34
707.554	30804.49
707.899	30841.1
708.243	30613.76
708.588	30626.19
708.932	30372.18
709.277	30390.26
709.621	30277.72
709.966	30168.57
710.31	30157.95
710.654	29878.41
710.998	29982.81
711.342	30023.94
711.687	29753.89
712.031	29763.16
712.375	29768.36
712.719	29679.54
713.063	29661.92
713.407	29717.96
713.75	29527.91
714.094	29481.58
714.438	29441.36
714.782	29281.81
715.125	29212.21
715.469	29422.15
715.812	29262.38
716.156	29100.35
716.499	29144.64
716.843	29219.67
717.186	29029.62
717.53	29160.01
717.873	29000.69
718.216	29100.8
718.559	29047.24
718.902	28709.4
719.246	28828.27
719.589	28803.64
719.932	28740.59
720.275	28826.91
720.617	28730.42
720.96	28689.97
721.303	28687.25
721.646	28755.73
721.989	28667.59
722.331	28626.69
722.674	28513.47
723.016	28708.04
723.359	28529.29
723.701	28454.94
724.044	28561.83
724.386	28437.32
724.729	28462.18
725.071	28565.45
725.413	28352.35
725.755	28484.32
726.097	28393.93
726.439	28371.33
726.782	28386.02
727.124	28668.05
727.465	28392.8
727.807	28354.83
728.149	28419.92
728.491	28468.28
728.833	28444.77
729.175	28465.57
729.516	28433.25
729.858	28392.35
730.199	28500.82
730.541	28508.73
730.882	28403.87
731.224	28568.39
731.565	28482.06
731.906	28568.39
732.248	28523.87
732.589	28489.97
732.93	28558.22
733.271	28533.81
733.612	28605
733.953	28701.94
734.294	28746.91
734.635	28567.94
734.976	28891.99
735.317	28707.37
735.658	28861.94
735.999	28759.34
736.339	28838.44
736.68	28863.29
737.021	28886.12
737.361	28826.23
737.702	28999.34
738.042	29073.46
738.383	29034.82
738.723	29164.98
739.063	28915.72
739.404	29295.37
739.744	29356.62
740.084	29184.87
740.424	29265.77
740.764	29344.64
741.104	29432.55
741.444	29473.9
741.784	29521.58
742.124	29611.3
742.464	29703.27
742.804	29720.9
743.143	29744.85
743.483	29950.95
743.823	29957.96
744.162	30026.65
744.502	30190.04
744.841	30237.72
745.181	30437.04
745.52	30331.96
745.86	30556.13
746.199	30504.16
746.538	30795.45
746.877	30837.25
747.216	31057.14
747.556	30999.51
747.895	31252.61
748.234	31342.55
748.573	31443.57
748.911	31463.23
749.25	31637.69
749.589	31645.37
749.928	31906.6
750.267	32050.56
750.605	32109.54
750.944	32220.04
751.283	32363.99
751.621	32604.89
751.96	32672.46
752.298	32672.01
752.636	32945.45
752.975	32964.43
753.313	33021.15
753.651	33471.31
753.989	33377.3
754.327	33534.81
754.666	33492.55
755.004	33792.66
755.342	33927.57
755.679	34062.48
756.017	34172.31
756.355	34407.1
756.693	34375.47
757.031	34695.68
757.368	34476.71
757.706	34739.07
758.044	34845.96
758.381	34815
758.719	35024.71
759.056	35280.75
759.394	35269.91
759.731	35138.16
760.068	35398.49
760.405	35686.17
760.743	35439.17
761.08	35675.09
761.417	35591.93
761.754	35837.35
762.091	35946.95
762.428	35759.38
762.765	35935.2
763.102	36089.32
763.438	36018.36
763.775	35963.67
764.112	36062.43
764.449	36295.87
764.785	36081.18
765.122	36156.44
765.458	36114.4
765.795	36319.6
766.131	36385.36
766.467	36190.11
766.804	36184.46
767.14	36042.77
767.476	36116.66
767.812	36171.58
768.148	36356.88
768.485	36206.38
768.821	36052.48
769.157	36061.75
769.492	36152.37
769.828	36033.95
770.164	35829.21
770.5	35881.87
770.836	35824.02
771.171	35905.82
771.507	35724.81
771.842	35648.65
772.178	35687.07
772.513	35585.38
772.849	35479.39
773.184	35591.48
773.519	35543.57
773.855	35391.26
774.19	35337.7
774.525	35297.48
774.86	35234.43
775.195	35158.04
775.53	35217.48
775.865	34797.38
776.2	34893.19
776.535	34558.51
776.87	34589.92
777.205	34505.63
777.539	34405.07
777.874	34476.93
778.209	34103.61
778.543	34220.67
778.878	34046.21
779.212	34042.82
779.547	33811.41
779.881	33870.39
780.215	33766.44
780.55	33903.39
780.884	33518.31
781.218	33446.68
781.552	33562.15
781.886	33293.23
782.22	33164.2
782.554	33176.18
782.888	32966.69
783.222	32930.98
783.556	32624.1
783.889	32574.38
784.223	32484.89
784.557	32425.01
784.89	32509.07
785.224	32291
785.557	32201.74
785.891	32188.41
786.224	32017.11
786.558	32050.78
786.891	31812.14
787.224	31561.98
787.557	31521.53
787.891	31582.09
788.224	31319.28
788.557	31399.05
788.89	31277.69
789.223	31079.73
789.556	31005.16
789.888	31050.36
790.221	30748.22
790.554	30735.79
790.887	30697.14
791.219	30591.61
791.552	30612.85
791.884	30364.05
792.217	30361.79
792.549	30169.02
792.882	30009.03
793.214	30051.74
793.546	29999.08
793.879	29808.81
794.211	29598.42
794.543	29604.97
794.875	29592.32
795.207	29589.15
795.539	29476.61
795.871	29520.9
796.203	29373.79
796.535	29001.6
796.867	29136.51
797.198	28929.28
797.53	28951.2
797.862	28644.09
798.193	28750.98
798.525	28644.32
798.856	28712.34
799.188	28363.87
799.519	28172.92
799.85	28162.3
800.182	28205.01
800.513	28128.4
800.844	27935.41
801.175	28103.54
801.506	28088.63
801.837	27826.03
802.168	27878.01
802.499	27760.72
802.83	27687.28
803.161	27466.72
803.491	27519.83
803.822	27533.61
804.153	27338.14
804.483	27182.21
804.814	27038.94
805.145	27179.95
805.475	27179.5
805.805	27041.87
806.136	27056.34
806.466	27000.07
806.796	26860.64
807.126	26596.69
807.457	26722.11
807.787	26749.23
808.117	26584.94
808.447	26520.53
808.777	26661.32
809.107	26254.1
809.436	26069.7
809.766	26205.51
810.096	26226.98
810.426	26076.93
810.755	26085.97
811.085	26098.17
811.414	26022.47
811.744	25726.65
812.073	25873.32
812.403	25838.29
812.732	25551.29
813.061	25754
813.39	25441.24
813.719	25544.06
814.049	25574.79
814.378	25527.79
814.707	25352.88
815.036	25478.75
815.365	25243.5
815.693	25087.57
816.022	25084.64
816.351	25039.67
816.68	24851.87
817.008	25034.47
817.337	24673.57
817.665	24801.93
817.994	24855.04
818.322	24923.96
818.651	24728.94
818.979	24580.02
819.307	24746.57
819.636	24636.74
819.964	24589.96
820.292	24632.45
820.62	24379.12
820.948	24526.69
821.276	24570.75
821.604	24452.34
821.932	24582.28
822.259	24497.53
822.587	24470.19
822.915	24471.09
823.243	24560.58
823.57	24374.83
823.898	24524.65
824.225	24310.65
824.553	24436.29
824.88	24425.67
825.207	24534.82
825.535	24443.07
825.862	24602.84
826.189	24426.58
826.516	24630.41
826.843	24513.13
827.17	24530.3
827.497	24546.35
827.824	24660.47
828.151	24610.75
828.478	24522.84
828.805	24681.26
829.131	24584.54
829.458	24575.05
829.785	24336.18
830.111	24535.27
830.438	24599.68
830.764	24499.12
831.09	24492.11
831.417	24494.6
831.743	24570.98
832.069	24514.48
832.395	24529.4
832.722	24596.74
833.048	24476.97
833.374	24616.85
833.7	24533.24
834.026	24577.98
834.351	24347.48
834.677	24507.25
835.003	24454.37
835.329	24359.01
835.654	24267.71
835.98	24274.94
836.306	24211.21
836.631	24304.54
836.956	24424.32
837.282	24335.05
837.607	24105.68
837.932	24154.94
838.258	24155.4
838.583	24135.96
838.908	24065.68
839.233	24100.26
839.558	23964.44
839.883	23884.89
840.208	23695.52
840.533	23939.36
840.858	23881.05
841.182	23947.94
841.507	23782.75
841.832	23723.77
842.156	23748.63
842.481	23684
842.805	23640.38
843.13	23522.42
843.454	23668.86
843.778	23355.87
844.103	23488.29
844.427	23391.35
844.751	23381.86
845.075	23298.24
845.399	23204.91
845.723	23129.21
846.047	23207.62
846.371	23008.99
846.695	22974.41
847.019	22848.09
847.343	22656.23
847.666	22653.06
847.99	22625.49
848.313	22476.34
848.637	22547.3
848.96	22378.04
849.284	22350.02
849.607	22176.69
849.931	22033.42
850.254	22056.47
850.577	22003.14
850.9	21781.67
851.223	21693.09
851.546	21639.98
851.869	21576.48
852.192	21669.13
852.515	21370.84
852.838	21263.04
853.161	21274.57
853.483	21096.49
853.806	21030.96
854.129	21032.31
854.451	21059.88
854.774	20822.83
855.096	20793.68
855.419	20762.72
855.741	20662.38
856.063	20531.54
856.385	20554.13
856.708	20546.23
857.03	20458.32
857.352	20333.58
857.674	20358.66
857.996	20211.77
858.318	20155.28
858.64	20171.32
858.961	20026.01
859.283	20051.78
859.605	19885.23
859.926	19995.96
860.248	19866.02
860.57	19819.46
860.891	19812.01
861.212	19685.68
861.534	19664.89
861.855	19600.94
862.176	19567.72
862.498	19606.36
862.819	19626.02
863.14	19442.07
863.461	19472.58
863.782	19537.44
864.103	19478.68
864.424	19348.97
864.745	19348.97
865.065	19262.87
865.386	19211.35
865.707	19266.03
866.027	19189.42
866.348	19220.61
866.668	19113.49
866.989	19007.96
867.309	18978.81
867.63	18898.13
867.95	18933.16
868.27	18930.9
868.59	18923.67
868.91	18878.47
869.23	18896.1
869.55	18852.48
869.87	18821.75
870.19	18665.6
870.51	18690
870.83	18693.17
871.15	18496.56
871.469	18532.04
871.789	18617.69
872.109	18591.25
872.428	18514.87
872.748	18478.26
873.067	18553.74
873.386	18479.61
873.706	18390.12
874.025	18422.67
874.344	18370.01
874.663	18300.63
874.982	18355.77
875.301	18268.77
875.62	18234.2
875.939	18211.37
876.258	18210.02
876.577	18069.23
876.896	18129.79
877.214	18079.85
877.533	18063.35
877.852	18021.32
878.17	17944.71
878.489	17945.84
878.807	17976.8
879.125	17863.58
879.444	17946.97
879.762	17807.09
880.08	17917.59
880.398	17816.35
880.716	17916.24
881.034	17742.23
881.352	17754.66
881.67	17585.4
881.988	17473.31
882.306	17541.11
882.624	17578.17
882.941	17546.76
883.259	17507.21
883.577	17482.8
883.894	17371.39
884.212	17408.23
884.529	17368.46
884.846	17132.08
885.164	17058.86
885.481	17075.58
885.798	17184.28
886.115	17056.83
886.432	17103.38
886.75	17063.61
887.067	17133.21
887.383	16963.04
887.7	16960.1
888.017	16802.14
888.334	16655.93
888.651	16712.65
888.967	16716.72
889.284	16619.32
889.6	16634.92
889.917	16594.01
890.233	16627.23
890.55	16508.82
890.866	16407.13
891.182	16463.62
891.498	16356.05
891.815	16220.69
892.131	16247.58
892.447	16170.75
892.763	16206.23
893.079	16148.83
893.395	16119.45
893.71	16022.95
894.026	16049.62
894.342	15938.21
894.657	15765.79
894.973	15794.94
895.289	15787.25
895.604	15672
895.92	15680.36
896.235	15629.29
896.55	15611.21
896.865	15524.21
897.181	15494.83
897.496	15481.5
897.811	15454.61
898.126	15288.96
898.441	15260.49
898.756	15305.91
899.071	15125.35
899.386	15159.7
899.7	15067.95
900.015	14953.83
900.33	14858.92
900.644	14881.52
900.959	14825.02
901.273	14817.11
901.588	14767.39
901.902	14658.7
902.216	14617.34
902.531	14564.24
902.845	14458.02
903.159	14406.95
903.473	14392.94
903.787	14350
904.101	14224.36
904.415	14311.81
904.729	14255.77
905.042	14101.87
905.356	14025.72
905.67	14091.25
905.984	14000.41
906.297	13899.62
906.611	13892.16
906.924	13827.08
907.237	13818.49
907.551	13789.11
907.864	13691.72
908.177	13584.37
908.491	13566.3
908.804	13496.92
909.117	13433.19
909.43	13326.3
909.743	13319.3
910.056	13312.74
910.368	13237.94
910.681	13239.3
910.994	13125.86
911.307	13179.87
911.619	12996.37
911.932	12972.64
912.244	12844.28
912.557	12885.41
912.869	12847.67
913.181	12823.04
913.494	12698.07
913.806	12627.56
914.118	12533.55
914.43	12567.23
914.742	12549.37
915.054	12402.26
915.366	12335.37
915.678	12415.37
915.99	12251.53
916.302	12248.14
916.613	12155.03
916.925	12102.83
917.236	12065.32
917.548	11912.33
917.859	11943.29
918.171	11930.63
918.482	11828.04
918.794	11824.65
919.105	11745.33
919.416	11761.15
919.727	11762.05
920.038	11711.66
920.349	11482.73
920.66	11519.12
920.971	11514.37
921.282	11427.14
921.593	11458.1
921.903	11260.37
922.214	11302.63
922.525	11302.85
922.835	11146.02
923.146	11061.73
923.456	11176.08
923.767	11010.2
924.077	11005.91
924.387	11075.29
924.697	10963.2
925.008	10902.19
925.318	10816.99
925.628	10851.34
925.938	10797.33
926.248	10659.93
926.558	10626.26
926.867	10542.65
927.177	10571.8
927.487	10530.9
927.796	10438.69
928.106	10394.63
928.416	10386.94
928.725	10305.59
929.034	10259.26
929.344	10320.73
929.653	10207.06
929.962	10142.43
930.271	10119.61
930.581	10105.14
930.89	10017.91
931.199	9976.11
931.508	9921.87
931.817	9891.36
932.125	9883.68
932.434	9829.44
932.743	9714.87
933.051	9730.01
933.36	9671.93
933.669	9619.28
933.977	9539.06
934.286	9586.06
934.594	9502.9
934.902	9443.24
935.21	9426.29
935.519	9368.89
935.827	9309.23
936.135	9283.02
936.443	9237.6
936.751	9231.49
937.059	9210.93
937.367	9102.68
937.674	9157.82
937.982	9118.05
938.29	8994.21
938.597	8984.5
938.905	8937.27
939.213	8866.76
939.52	8886.64
939.827	8837.15
940.135	8840.09
940.442	8758.29
940.749	8686.88
941.056	8670.38
941.363	8659.76
941.67	8611.62
941.977	8591.06
942.284	8536.37
942.591	8468.58
942.898	8434.91
943.205	8371.86
943.511	8397.39
943.818	8387.22
944.125	8257.06
944.431	8203.5
944.738	8199.66
945.044	8228.36
945.35	8217.28
945.657	8135.7
945.963	8124.41
946.269	8071.3
946.575	8046.89
946.881	7963.96
947.187	7970.74
947.493	7947.91
947.799	7866.56
948.105	7853.68
948.41	7786.56
948.716	7841.25
949.022	7762.83
949.327	7731.42
949.633	7582.27
949.938	7626.79
950.244	7647.36
950.549	7518.09
950.854	7510.18
951.16	7532.78
951.465	7482.16
951.77	7369.85
952.075	7399.23
952.38	7364.43
952.685	7399
952.99	7261.15
953.294	7191.77
953.599	7175.28
953.904	7177.76
954.209	7107.93
954.513	7166.46
954.818	7090.31
955.122	7050.08
955.426	7088.5
955.731	7043.76
956.035	6947.03
956.339	6948.84
956.643	6890.99
956.948	6821.84
957.252	6846.25
957.556	6815.51
957.86	6803.08
958.163	6783.2
958.467	6753.82
958.771	6689.19
959.075	6682.41
959.378	6601.96
959.682	6652.58
959.985	6501.4
960.289	6536.65
960.592	6544.11
960.896	6560.83
961.199	6458.69
961.502	6440.61
961.805	6453.04
962.108	6383.21
962.411	6322.42
962.714	6299.37
963.017	6237
963.32	6271.8
963.623	6237.9
963.926	6216.66
964.228	6197.22
964.531	6137.34
964.833	6191.12
965.136	6124.23
965.438	6048.53
965.741	6005.14
966.043	6012.37
966.345	5983.44
966.648	5952.94
966.95	5957.91
967.252	5907.06
967.554	5897.8
967.856	5834.07
968.158	5842.88
968.46	5794.3
968.761	5763.79
969.063	5749.1
969.365	5675.66
969.666	5712.49
969.968	5683.79
970.269	5641.31
970.571	5634.98
970.872	5582.55
971.174	5575.09
971.475	5552.04
971.776	5514.08
972.077	5468.43
972.378	5465.27
972.679	5464.36
972.98	5380.07
973.281	5398.38
973.582	5417.81
973.883	5358.83
974.183	5335.78
974.484	5357.02
974.785	5293.74
975.085	5274.31
975.386	5317.93
975.686	5238.83
975.986	5180.53
976.287	5140.3
976.587	5129.46
976.887	5061.89
977.187	5111.83
977.487	5126.97
977.787	5028.67
978.087	5009.23
978.387	4957.71
978.687	4916.81
978.987	4938.05
979.286	4902.79
979.586	4900.31
979.885	4896.02
980.185	4836.81
980.484	4833.19
980.784	4862.8
981.083	4780.54
981.382	4734.66
981.682	4729.24
981.981	4770.59
982.28	4706.87
982.579	4703.25
982.878	4659.64
983.177	4620.32
983.475	4644.5
983.774	4577.38
984.073	4563.59
984.372	4551.84
984.67	4521.34
984.969	4525.63
985.267	4461
985.566	4437.95
985.864	4437.5
986.162	4387.78
986.461	4401.11
986.759	4412.86
987.057	4385.52
987.355	4336.26
987.653	4304.62
987.951	4294.9
988.249	4310.49
988.547	4222.13
988.844	4218.75
989.142	4239.54
989.44	4191.18
989.737	4169.93
990.035	4143.94
990.332	4124.96
990.63	4140.55
990.927	4105.53
991.224	4100.56
991.521	4061.69
991.819	4057.17
992.116	4021.24
992.413	4004.29
992.71	4017.39
993.006	3968.81
993.303	3937.62
993.6	3942.82
993.897	3918.19
994.193	3861.24
994.49	3858.53
994.787	3832.99
995.083	3810.17
995.379	3760.9
995.676	3808.59
995.972	3769.49
996.268	3770.62
996.565	3691.75
996.861	3684.97
997.157	3681.58
997.453	3684.75
997.749	3646.78
998.044	3634.81
998.34	3630.96
998.636	3595.94
998.932	3579.89
999.227	3517.97
999.523	3527.92
999.818	3525.88
1000.114	3461.48
1000.409	3454.25
1000.704	3445.21
1001	3443.62
1001.295	3432.78
1001.59	3382.83
1001.885	3362.5
1002.18	3377.86
1002.475	3343.97
1002.77	3308.94
1003.065	3284.53
1003.359	3286.57
1003.654	3295.15
1003.949	3212.67
1004.243	3223.06
1004.538	3231.2
1004.832	3197.98
1005.127	3227.13
1005.421	3174.25
1005.715	3165.89
1006.009	3162.05
1006.304	3088.83
1006.598	3072.79
1006.892	3094.93
1007.186	3033.69
1007.48	3058.1
1007.773	2996.18
1008.067	2968.83
1008.361	2936.52
1008.655	2938.33
1008.948	2957.08
1009.242	2951.89
1009.535	2874.15
1009.829	2875.73
1010.122	2816.75
1010.415	2852.68
1010.708	2818.56
1011.001	2774.72
1011.295	2779.69
1011.588	2807.93
1011.881	2741.5
1012.173	2731.55
1012.466	2717.99
1012.759	2723.87
1013.052	2730.65
1013.344	2675.73
1013.637	2651.55
1013.93	2629.63
1014.222	2604.78
1014.514	2615.62
1014.807	2607.71
1015.099	2576.08
1015.391	2539.02
1015.683	2544.89
1015.976	2502.41
1016.268	2522.74
1016.56	2454.95
1016.851	2440.71
1017.143	2465.12
1017.435	2452.24
1017.727	2423.09
1018.018	2399.58
1018.31	2343.09
1018.602	2377.44
1018.893	2351
1019.185	2354.61
1019.476	2323.43
1019.767	2334.05
1020.058	2253.82
1020.35	2246.82
1020.641	2261.96
1020.932	2227.84
1021.223	2212.92
1021.514	2209.31
1021.804	2209.31
1022.095	2195.52
1022.386	2187.84
1022.677	2138.57
1022.967	2113.72
1023.258	2125.69
1023.548	2098.57
1023.839	2122.3
1024.129	2044.11
1024.419	2067.16
1024.709	2033.94
1025	2072.13
1025.29	1995.53
1025.58	1986.49
1025.87	1982.42
1026.16	2003.21
1026.449	1964.12
1026.739	1954.4
1027.029	1927.73
1027.319	1921.4
1027.608	1913.95
1027.898	1906.04
1028.187	1852.48
1028.477	1842.31
1028.766	1851.35
1029.055	1835.98
1029.344	1840.28
1029.634	1807.51
1029.923	1786.72
1030.212	1781.97
1030.501	1755.08
1030.79	1765.48
1031.078	1741.97
1031.367	1726.83
1031.656	1721.64
1031.945	1698.81
1032.233	1694.97
1032.522	1676.21
1032.81	1686.38
1033.099	1675.76
1033.387	1673.05
1033.675	1655.65
1033.963	1642.09
1034.251	1588.98
1034.54	1607.29
1034.828	1597.35
1035.116	1565.03
1035.403	1591.92
1035.691	1567.52
1035.979	1557.35
1036.267	1559.61
1036.554	1519.83
1036.842	1498.59
1037.129	1498.59
1037.417	1512.83
1037.704	1497.91
1037.992	1480.96
1038.279	1450.46
1038.566	1431.02
1038.853	1431.02
1039.14	1431.02
