Data from 635_FLMS001491_005.txt Node
Date: Thu Apr 19 16:46:24 BST 2018
User: hsy
Spectrometer: FLMS00149
Trigger mode: 0
Integration Time (sec): 1.000000E-2
Scans to average: 10
Electric dark correction enabled: true
Nonlinearity correction enabled: false
Boxcar width: 0
XAxis mode: Wavelengths
Number of Pixels in Spectrum: 2048
>>>>>Begin Spectral Data<<<<<
341.393	-26.3
341.776	-26.3
342.16	-26.3
342.543	-64.04
342.927	-70.14
343.31	-66.98
343.693	-59.52
344.077	-84.15
344.46	-35.11
344.843	-51.38
345.226	-50.03
345.61	-18.39
345.993	-19.29
346.376	-11.38
346.759	12.57
347.142	16.86
347.525	36.52
347.908	60.93
348.291	73.81
348.674	90.08
349.057	105.45
349.44	149.06
349.823	134.37
350.206	166.46
350.588	228.61
350.971	227.71
351.354	243.3
351.737	257.08
352.119	266.35
352.502	289.85
352.884	310.87
353.267	325.1
353.65	310.42
354.032	350.41
354.414	359
354.797	361.49
355.179	344.31
355.562	359.91
355.944	372.56
356.326	357.65
356.709	376.18
357.091	387.7
357.473	354.71
357.855	369.17
358.238	362.62
358.62	377.08
359.002	390.19
359.384	392.67
359.766	373.46
360.148	376.18
360.53	383.18
360.912	370.75
361.294	371.66
361.676	378.89
362.057	384.09
362.439	377.31
362.821	379.34
363.203	390.64
363.584	358.78
363.966	369.4
364.348	362.39
364.729	377.76
365.111	360.81
365.493	389.96
365.874	382.73
366.256	359.23
366.637	360.13
367.019	348.38
367.4	347.93
367.781	375.05
368.163	361.26
368.544	369.4
368.925	362.62
369.306	371.66
369.688	362.17
370.069	384.09
370.45	380.02
370.831	360.58
371.212	384.76
371.593	371.43
371.974	374.37
372.355	371.2
372.736	376.4
373.117	359.45
373.498	371.66
373.879	381.15
374.26	367.59
374.641	365.1
375.021	378.89
375.402	384.76
375.783	370.3
376.163	387.48
376.544	394.93
376.925	394.93
377.305	384.09
377.686	383.41
378.066	404.65
378.447	398.1
378.827	404.88
379.208	418.44
379.588	397.19
379.968	424.99
380.349	410.3
380.729	406.91
381.109	415.95
381.489	443.97
381.87	439.45
382.25	438.77
382.63	420.92
383.01	416.63
383.39	431.32
383.77	437.19
384.15	417.53
384.53	439
384.91	453.24
385.29	438.77
385.67	457.76
386.049	463.18
386.429	469.51
386.809	470.19
387.189	454.14
387.568	446.91
387.948	458.89
388.328	492.56
388.707	477.87
389.087	459.11
389.466	460.24
389.846	508.83
390.225	490.98
390.605	498.89
390.984	489.62
391.363	511.99
391.743	512.9
392.122	511.77
392.501	505.44
392.881	495.5
393.26	526.46
393.639	520.35
394.018	545.44
394.397	542.05
394.776	530.75
395.155	541.82
395.534	554.7
395.913	566.91
396.292	575.04
396.671	577.75
397.05	567.13
397.429	598.77
397.808	583.4
398.186	572.1
398.565	586.57
398.944	608.71
399.323	603.29
399.701	610.07
400.08	603.97
400.458	621.59
400.837	632.22
401.215	633.57
401.594	670.18
401.972	634.7
402.351	640.35
402.729	666.56
403.107	689.84
403.486	686.22
403.864	705.21
404.242	692.1
404.62	723.06
404.999	710.18
405.377	734.81
405.755	740.23
406.133	699.56
406.511	765.77
406.889	781.14
407.267	797.41
407.645	806.9
408.023	821.36
408.401	841.93
408.779	849.61
409.156	815.04
409.534	867.24
409.912	869.04
410.29	895.71
410.667	922.6
411.045	922.6
411.422	932.55
411.8	959.89
412.178	1001.92
412.555	1017.06
412.933	1010.51
413.31	1022.04
413.687	1041.24
414.065	1062.26
414.442	1076.95
414.819	1100.45
415.197	1124.86
415.574	1137.96
415.951	1144.52
416.328	1164.86
416.705	1192.2
417.082	1180
417.46	1188.81
417.837	1234.01
418.214	1239.43
418.591	1240.56
418.967	1254.57
419.344	1291.18
419.721	1315.59
420.098	1300.22
420.475	1318.3
420.852	1335.7
421.228	1342.93
421.605	1363.04
421.982	1403.27
422.358	1397.84
422.735	1431.74
423.111	1473.55
423.488	1478.75
423.864	1480.33
424.241	1481.46
424.617	1528.46
424.994	1528.24
425.37	1549.25
425.746	1571.63
426.123	1608.46
426.499	1607.56
426.875	1634.22
427.251	1680.32
427.627	1685.75
428.003	1695.92
428.379	1744.28
428.756	1756.93
429.132	1786.08
429.507	1808.68
429.883	1783.15
430.259	1842.13
430.635	1902.69
431.011	1900.2
431.387	1904.05
431.763	1949.47
432.138	1978.17
432.514	2010.26
432.89	2035.79
433.265	2057.04
433.641	2109.46
434.016	2116.47
434.392	2156.24
434.767	2229.24
435.143	2198.73
435.518	2282.12
435.894	2307.88
436.269	2326.18
436.644	2344.26
437.02	2399.85
437.395	2388.55
437.77	2441.43
438.145	2516.23
438.52	2491.38
438.895	2516.69
439.271	2516.69
439.646	2604.37
440.021	2629.45
440.395	2646.63
440.77	2609.34
441.145	2689.34
441.52	2733.85
441.895	2720.75
442.27	2739.28
442.645	2742.44
443.019	2789.22
443.394	2824.47
443.769	2791.71
444.143	2817.69
444.518	2895.43
444.892	2880.29
445.267	2864.92
445.641	2934.3
446.016	2928.88
446.39	2948.99
446.764	3014.07
447.139	2988.76
447.513	3040.97
447.887	3057.69
448.262	3077.35
448.636	3062.43
449.01	3148.53
449.384	3176.33
449.758	3195.99
450.132	3256.33
450.506	3273.5
450.88	3284.57
451.254	3248.64
451.628	3302.43
452.002	3378.13
452.376	3429.66
452.75	3473.04
453.123	3456.77
453.497	3553.27
453.871	3569.31
454.244	3682.53
454.618	3677.33
454.992	3747.61
455.365	3753.04
455.739	3821.28
456.112	3849.31
456.486	3942.64
456.859	3982.64
457.232	4024.44
457.606	4059.7
457.979	4089.3
458.352	4181.95
458.725	4291.1
459.099	4286.13
459.472	4360.7
459.845	4455.62
460.218	4480.02
460.591	4522.73
460.964	4560.7
461.337	4628.27
461.71	4698.1
462.083	4768.38
462.456	4831.88
462.829	4830.97
463.201	4920.01
463.574	4961.37
463.947	5013.12
464.32	5138.99
464.692	5190.29
465.065	5247.46
465.438	5296.05
465.81	5384.41
466.183	5416.04
466.555	5512.09
466.928	5563.38
467.3	5589.37
467.672	5647.68
468.045	5824.62
468.417	5801.12
468.789	5846.54
469.161	5932.41
469.534	6062.35
469.906	6186.19
470.278	6197.27
470.65	6248.34
471.022	6416.7
471.394	6481.55
471.766	6553.87
472.138	6672.96
472.51	6779.85
472.882	6899.17
473.253	6891.49
473.625	6963.35
473.997	7216.45
474.369	7231.14
474.74	7297.12
475.112	7419.16
475.484	7631.35
475.855	7659.6
476.227	7840.39
476.598	8005.13
476.97	8141.85
477.341	8259.13
477.713	8348.4
478.084	8424.55
478.455	8742.96
478.827	8751.78
479.198	8975.27
479.569	9074.7
479.94	9377.07
480.311	9373.45
480.682	9650.96
481.053	9847.57
481.424	9971.63
481.795	10064.96
482.166	10259.31
482.537	10359.87
482.908	10541.56
483.279	10652.29
483.65	10953.75
484.021	11187.19
484.391	11290.24
484.762	11443.46
485.133	11497.69
485.503	11710.79
485.874	12002.31
486.244	12158.69
486.615	12415.86
486.985	12566.36
487.356	12804.1
487.726	12913.25
488.097	13223.07
488.467	13273.46
488.837	13615.6
489.207	13668.48
489.578	13924.52
489.948	14119.09
490.318	14347.79
490.688	14374
491.058	14712.75
491.428	14914.78
491.798	15062.8
492.168	15411.94
492.538	15431.83
492.908	15694.87
493.278	15905.71
493.648	16018.48
494.017	16230.9
494.387	16402.65
494.757	16578.69
495.126	16700.27
495.496	16852.58
495.866	16980.71
496.235	17224.55
496.605	17349.52
496.974	17579.79
497.344	17739.11
497.713	17838.09
498.082	17932.78
498.452	18056.16
498.821	18356.95
499.19	18341.13
499.559	18502.93
499.928	18650.5
500.298	18749.93
500.667	19089.36
501.036	19010.49
501.405	19241.44
501.774	19331.16
502.143	19550.81
502.512	19660.42
502.88	19837.13
503.249	19752.62
503.618	20029.22
503.987	20063.12
504.356	20204.36
504.724	20341.08
505.093	20556.21
505.462	20524.57
505.83	20670.33
506.199	20892.7
506.567	21134.73
506.936	21125.01
507.304	21463.76
507.672	21574.04
508.041	21679.35
508.409	21828.95
508.777	22059.9
509.145	22179.22
509.514	22221.25
509.882	22361.14
510.25	22531.3
510.618	22677.51
510.986	22746.44
511.354	22892.87
511.722	23162.02
512.09	23323.82
512.458	23244.5
512.826	23503.7
513.193	23684.04
513.561	23846.97
513.929	23931.04
514.297	24178.71
514.664	24317.24
515.032	24442.89
515.4	24652.37
515.767	24720.4
516.135	24910.45
516.502	24822.54
516.869	25161.51
517.237	25279.48
517.604	25136.66
517.972	25619.13
518.339	25757.2
518.706	25750.65
519.073	26013.69
519.44	26187.93
519.808	26321.26
520.175	26403.74
520.542	26793.56
520.909	26830.62
521.276	26962.6
521.643	27120.33
522.009	27342.02
522.376	27430.61
522.743	27585.18
523.11	27978.39
523.477	28163.02
523.843	28367.3
524.21	28546.51
524.577	28818.59
524.943	28972.94
525.31	29074.41
525.676	29282.08
526.043	29510.1
526.409	29552.81
526.776	29937.21
527.142	29808.62
527.508	30011.1
527.874	30290.64
528.241	30502.84
528.607	30646.57
528.973	30936.73
529.339	30860.12
529.705	31099.89
530.071	31324.74
530.437	31404.29
530.803	31642.93
531.169	31800.89
531.535	31846.76
531.901	31901.45
532.267	32057.6
532.632	32300.99
532.998	32348.22
533.364	32458.95
533.73	32484.03
534.095	32794.08
534.461	32694.2
534.826	32932.38
535.192	32891.71
535.557	33041.08
535.923	33054.64
536.288	33219.15
536.653	33251.24
537.019	33285.82
537.384	33290.79
537.749	33410.34
538.114	33528.07
538.479	33437.45
538.845	33469.77
539.21	33462.54
539.575	33502.09
539.94	33702.76
540.305	33737.56
540.67	33785.92
541.034	33739.14
541.399	33818.91
541.764	33937.78
542.129	33896.88
542.494	33968.74
542.858	33981.17
543.223	33916.99
543.587	33975.07
543.952	33969.64
544.316	34035.18
544.681	33951.34
545.045	34281.5
545.41	34268.84
545.774	34103.2
546.138	34161.95
546.503	34097.55
546.867	34302.29
547.231	34416.41
547.595	34569.63
547.959	34475.39
548.324	34440.14
548.688	34428.61
549.052	34482.62
549.416	34455.28
549.779	34476.07
550.143	34435.39
550.507	34611.89
550.871	34639.68
551.235	34464.09
551.599	34790.19
551.962	34700.92
552.326	34599.23
552.689	34770.98
553.053	34573.7
553.417	34727.36
553.78	34976.85
554.143	34859.11
554.507	34992.22
554.87	34973.46
555.234	35117.41
555.597	34968.49
555.96	35129.61
556.323	35195.83
556.686	35103.4
557.05	35318.99
557.413	35258.65
557.776	35342.49
558.139	35443.05
558.502	35472.43
558.865	35517.4
559.228	35610.73
559.59	35703.38
559.953	35588.13
560.316	36007.78
560.679	35788.35
561.041	36018.86
561.404	36098.4
561.767	36348.34
562.129	36133.65
562.492	36373.42
562.854	36316.7
563.217	36295.46
563.579	36486.19
563.941	36524.15
564.304	36767.31
564.666	36953.52
565.028	36811.38
565.39	36787.87
565.753	37016.57
566.115	37134.76
566.477	37122.78
566.839	37242.55
567.201	37457.69
567.563	37403.45
567.925	37557.35
568.287	37531.13
568.648	37575.2
569.01	37728.41
569.372	37980.84
569.734	37963.44
570.095	38084.11
570.457	38146.26
570.819	38260.83
571.18	38146.03
571.542	38424.22
571.903	38350.77
572.265	38563.65
572.626	38639.13
572.987	38493.37
573.349	38713.02
573.71	38764.09
574.071	38823.3
574.432	39000.7
574.794	39244.76
575.155	39173.12
575.516	39100.13
575.877	39130.19
576.238	39260.35
576.599	39319.79
576.96	39364.3
577.32	39296.74
577.681	39477.97
578.042	39529.95
578.403	39458.54
578.763	39360.91
579.124	39464.41
579.485	39609.04
579.845	39733.79
580.206	39578.76
580.566	39641.36
580.927	39513
581.287	39704.63
581.648	39512.1
582.008	39755.03
582.368	39712.77
582.728	39736.27
583.089	39665.54
583.449	39588.25
583.809	39581.7
584.169	39729.27
584.529	39465.77
584.889	39969.26
585.249	39427.13
585.609	39404.3
585.969	39629.16
586.329	39500.57
586.688	39493.34
587.048	39540.8
587.408	39446.34
587.768	39364.08
588.127	39471.65
588.487	39389.61
588.846	39632.32
589.206	39214.7
589.565	39224.42
589.925	39411.31
590.284	39239.34
590.643	39217.19
591.003	39192.33
591.362	39453.79
591.721	39250.63
592.08	39271.43
592.44	39440.46
592.799	39289.73
593.158	39378.31
593.517	39106.91
593.876	39272.1
594.235	39136.51
594.593	39199.11
594.952	39337.19
595.311	39136.29
595.67	39238.88
596.029	39276.85
596.387	39373.8
596.746	39357.98
597.104	39038.44
597.463	39259.9
597.822	39333.8
598.18	39194.82
598.538	39311.2
598.897	39492.21
599.255	39088.15
599.613	39633.9
599.972	39281.82
600.33	39319.11
600.688	39254.93
601.046	39264.87
601.404	39512.77
601.762	39626.22
602.12	39554.36
602.478	39598.65
602.836	39535.37
603.194	39509.38
603.552	39436.39
603.91	39458.76
604.268	39663.51
604.625	39454.7
604.983	39704.18
605.341	39506
605.698	39761.58
606.056	40020.78
606.413	39752.09
606.771	39963.16
607.128	40014.91
607.485	39838.64
607.843	39910.73
608.2	40058.3
608.557	40182.81
608.914	40111.4
609.272	40233.89
609.629	40292.64
609.986	40505.52
610.343	40324.96
610.7	40641.33
611.057	40531.28
611.414	40380.1
611.771	40686.3
612.127	40821.67
612.484	40759.52
612.841	40889.46
613.198	40863.93
613.554	40723.14
613.911	41021.21
614.267	41101.66
614.624	40947.77
614.98	41095.11
615.337	41418.94
615.693	41335.55
616.05	41293.07
616.406	41501.2
616.762	41343.69
617.118	41416.68
617.475	41451.71
617.831	41617.58
618.187	41756.11
618.543	41680.63
618.899	41783
619.255	41792.04
619.611	41940.06
619.967	42045.82
620.323	41961.75
620.678	41954.97
621.034	41930.56
621.39	41871.81
621.746	42000.17
622.101	42509.76
622.457	41874.29
622.812	42245.13
623.168	42356.09
623.523	42207.39
623.879	42354.73
624.234	42219.6
624.589	42383.21
624.945	42424.56
625.3	42263.21
625.655	42275.64
626.01	42452.81
626.365	42443.09
626.72	42291.01
627.075	42255.98
627.43	42399.48
627.785	42397.9
628.14	42379.82
628.495	42417.56
628.85	42366.03
629.205	42230.9
629.559	42478.57
629.914	42211.69
630.269	42336.88
630.623	42126.04
630.978	41990
631.332	42206.04
631.687	42229.77
632.041	42153.16
632.396	42105.25
632.75	42133.95
633.104	42188.64
633.459	41844.92
633.813	41902.54
634.167	41848.08
634.521	41859.38
634.875	42033.16
635.229	41774.64
635.583	41689.21
635.937	41688.08
636.291	41646.5
636.645	41786.84
636.999	41535.55
637.352	41588.65
637.706	41361.54
638.06	41728.54
638.413	41359.05
638.767	41509.78
639.121	41463.23
639.474	41249.9
639.828	41365.38
640.181	41224.82
640.534	41406.51
640.888	41037.93
641.241	40932.4
641.594	41063.92
641.947	41128.33
642.301	40938.73
642.654	41067.54
643.007	40934.88
643.36	41124.26
643.713	40907.31
644.066	41173.97
644.419	40908.44
644.771	40390.72
645.124	40121.57
645.477	40129.26
645.83	39941.69
646.182	40097.62
646.535	39834.57
646.888	39970.62
647.24	39793.67
647.593	39913.89
647.945	39836.16
648.298	39747.12
648.65	39603.85
649.002	39541.7
649.355	39622.6
649.707	39581.93
650.059	39551.64
650.411	40035.7
650.763	40208.35
651.115	40617.15
651.467	40566.53
651.819	40472.75
652.171	40524.5
652.523	40447.89
652.875	40445.41
653.227	40461
653.578	40673.65
653.93	40644.95
654.282	40292.87
654.633	40302.36
654.985	40498.74
655.337	40665.51
655.688	40515.46
656.039	40721.33
656.391	40320.89
656.742	40501.45
657.094	40614.89
657.445	40520.43
657.796	40628.68
658.147	40490.83
658.498	40600.66
658.849	40721.56
659.2	40665.51
659.551	40660.77
659.902	40803.14
660.253	40685.85
660.604	40789.35
660.955	40679.07
661.306	40906.41
661.656	40705.29
662.007	40843.81
662.358	40882
662.708	40844.49
663.059	40905.96
663.409	40768.11
663.76	41006.75
664.11	40934.88
664.461	41112.28
664.811	41071.83
665.161	40980.53
665.511	40926.3
665.862	40809.69
666.212	41112.96
666.562	41160.87
666.912	41032.96
667.262	40932.85
667.612	41060.98
667.962	40968.1
668.312	40977.82
668.662	41236.35
669.011	41120.87
669.361	41093.3
669.711	41037.03
670.06	40929.23
670.41	40917.94
670.76	40847.65
671.109	40980.76
671.459	41037.25
671.808	40902.57
672.157	40917.71
672.507	40823.02
672.856	40741.22
673.205	40721.56
673.554	40961.32
673.904	40760.2
674.253	41116.8
674.602	40694.21
674.951	40152.08
675.3	39944.4
675.649	40670.48
675.998	40759.07
676.346	40640.88
676.695	40807.66
677.044	40504.16
677.393	40575.35
677.741	40573.54
678.09	40564.05
678.438	40498.96
678.787	40498.96
679.135	40398.63
679.484	40081.57
679.832	40308.46
680.181	40212.42
680.529	40258.97
680.877	39977.4
681.225	39913.22
681.573	40291.51
681.922	40000.22
682.27	39882.03
682.618	39952.31
682.966	39786.67
683.314	39716.84
683.661	39683.17
684.009	39466.22
684.357	39527.92
684.705	39381.25
685.053	39386.22
685.4	39130.41
685.748	38949.4
686.095	39026.91
686.443	38869.18
686.79	38840.25
687.138	38818.78
687.485	38703.98
687.832	38510.77
688.18	38652.46
688.527	38476.64
688.874	38369.3
689.221	38351.68
689.568	38198.23
689.915	38010.89
690.262	38063.1
690.609	37926.15
690.956	37761.63
691.303	37673.05
691.65	37561.64
691.997	37420.63
692.344	37218.15
692.69	37078.94
693.037	37127.98
693.383	36788.55
693.73	36917.59
694.077	36704.26
694.423	36603.7
694.769	36439.18
695.116	36412.97
695.462	36230.6
695.808	36071.51
696.155	36082.36
696.501	35843.27
696.847	35822.7
697.193	35596.95
697.539	35525.53
697.885	35299.78
698.231	35218.2
698.577	35196.73
698.923	35163.96
699.269	34651.66
699.614	34536.86
699.96	34579.35
700.306	34581.38
700.651	34351.1
700.997	34182.07
701.342	34072.47
701.688	34039.7
702.033	33859.59
702.379	33707.5
702.724	33693.04
703.069	33639.26
703.415	33301.64
703.76	33233.39
704.105	33257.57
704.45	33000.18
704.795	32933.96
705.14	32858.49
705.485	32829.11
705.83	32576.01
706.175	32571.26
706.52	32596.57
706.865	32271.16
707.209	32342.34
707.554	32238.62
707.899	32132.4
708.243	31927.89
708.588	31918.4
708.932	31785.07
709.277	31914.78
709.621	31640.21
709.966	31476.15
710.31	31531.97
710.654	31284.52
710.998	31402.71
711.342	31331.29
711.687	31221.24
712.031	31237.74
712.375	31195.93
712.719	30877.97
713.063	30958.65
713.407	31047.01
713.75	30866.45
714.094	30878.2
714.438	30691.54
714.782	30677.07
715.125	30626.68
715.469	30729.73
715.812	30398.89
716.156	30434.37
716.499	30452
716.843	30378.1
717.186	30258.55
717.53	30413.58
717.873	30349.17
718.216	30353.24
718.559	30330.87
718.902	30012.01
719.246	30170.65
719.589	30177.43
719.932	29975.17
720.275	30090.42
720.617	30144.66
720.96	29993.25
721.303	29977.88
721.646	30040.48
721.989	29868.51
722.331	29949.64
722.674	29875.74
723.016	29871.22
723.359	29810.66
723.701	29890.2
724.044	29741.51
724.386	29706.03
724.729	29872.35
725.071	29922.52
725.413	29842.52
725.755	29863.99
726.097	29598.46
726.439	29673.94
726.782	29602.98
727.124	29791.67
727.465	29824.22
727.807	29634.84
728.149	29680.49
728.491	29612.92
728.833	29839.81
729.175	29680.04
729.516	29717.78
729.858	29739.25
730.199	29838.23
730.541	29856.08
730.882	29661.96
731.224	29820.37
731.565	29792.8
731.906	29829.64
732.248	29876.19
732.589	29712.58
732.93	29680.72
733.271	29757.78
733.612	29788.28
733.953	29960.48
734.294	29891.11
734.635	29929.52
734.976	30137.88
735.317	29913.7
735.658	29979.01
735.999	30029.41
736.339	29992.8
736.68	30033.25
737.021	30126.35
737.361	30152.79
737.702	30318.89
738.042	30228.5
738.383	30327.03
738.723	30478.66
739.063	30419.68
739.404	30463.07
739.744	30510.75
740.084	30516.63
740.424	30616.06
740.764	30634.82
741.104	30711.88
741.444	30635.72
741.784	30735.6
742.124	31027.8
742.464	30951.87
742.804	30943.96
743.143	30884.98
743.483	31246.33
743.823	31150.96
744.162	31244.52
744.502	31393.89
744.841	31335.81
745.181	31745.75
745.52	31712.75
745.86	31965.18
746.199	31808.8
746.538	31951.84
746.877	32142.57
747.216	32276.81
747.556	32405.84
747.895	32406.75
748.234	32582.56
748.573	32705.72
748.911	32772.84
749.25	32928.99
749.589	32872.95
749.928	33063
750.267	33215.54
750.605	33330.79
750.944	33467.96
751.283	33552.71
751.621	33786.6
751.96	33719.25
752.298	33786.82
752.636	34019.13
752.975	34127.83
753.313	34157.21
753.651	34483.53
753.989	34540.25
754.327	34659.34
754.666	34449.63
755.004	34880.81
755.342	35038.54
755.679	35171.42
756.017	35038.54
756.355	35386.78
756.693	35437.63
757.031	35699.99
757.368	35625.87
757.706	35814.79
758.044	35883.04
758.381	36101.79
758.719	36035.35
759.056	36222.24
759.394	36357.15
759.731	36206.19
760.068	36325.74
760.405	36335.46
760.743	36323.93
761.08	36657.93
761.417	36517.83
761.754	36700.19
762.091	36767.99
762.428	36697.26
762.765	36706.97
763.102	36813.64
763.438	36870.58
763.775	36768.21
764.112	36798.27
764.449	37086.85
764.785	37085.72
765.122	36932.28
765.458	36877.36
765.795	36929.34
766.131	36983.12
766.467	37068.32
766.804	36934.76
767.14	36923.92
767.476	36886.4
767.812	36844.82
768.148	36975.67
768.485	36875.1
768.821	36663.81
769.157	36638.5
769.492	36703.58
769.828	36829
770.164	36462.46
770.5	36570.03
770.836	36588.78
771.171	36384.5
771.507	36408.68
771.842	36245.74
772.178	36334.33
772.513	36223.14
772.849	36227.66
773.184	36084.62
773.519	36115.58
773.855	35933.43
774.19	35968.01
774.525	35856.37
774.86	35746.77
775.195	35663.38
775.53	35666.32
775.865	35516.04
776.2	35325.99
776.535	35196.05
776.87	35167.35
777.205	34983.4
777.539	35018.66
777.874	35139.33
778.209	34699.12
778.543	34769.62
778.878	34535.73
779.212	34644.2
779.547	34417.32
779.881	34448.28
780.215	34086.93
780.55	34283.31
780.884	34019.59
781.218	33964.45
781.552	34044.44
781.886	33848.06
782.22	33727.62
782.554	33563.1
782.888	33406.04
783.222	33462.54
783.556	33224.35
783.889	33129.44
784.223	32942.33
784.557	32893.74
784.89	33005.6
785.224	32800.18
785.557	32624.37
785.891	32527.65
786.224	32447.88
786.558	32475.45
786.891	32274.32
787.224	32121.1
787.557	31889.47
787.891	31981
788.224	31827.78
788.557	31827.55
788.89	31619.87
789.223	31521.8
789.556	31385.53
789.888	31338.53
790.221	31172.65
790.554	31117.74
790.887	31045.43
791.219	30896.05
791.552	30992.32
791.884	30837.97
792.217	30645.21
792.549	30645.89
792.882	30350.53
793.214	30230.53
793.546	30246.8
793.879	30120.71
794.211	29939.02
794.543	30065.34
794.875	29923.65
795.207	29957.77
795.539	29827.61
795.871	29846.14
796.203	29627.84
796.535	29337.22
796.867	29621.96
797.198	29321.63
797.53	29239.82
797.862	29138.13
798.193	29058.13
798.525	28990.57
798.856	29160.73
799.188	28704.92
799.519	28664.25
799.85	28461.99
800.182	28565.49
800.513	28584.02
800.844	28241.21
801.175	28384.25
801.506	28385.38
801.837	28095
802.168	28159.85
802.499	28133.86
802.83	27910.82
803.161	27869.46
803.491	27814.55
803.822	27930.71
804.153	27621.11
804.483	27591.96
804.814	27490.27
805.145	27467.67
805.475	27336.37
805.805	27222.25
806.136	27346.77
806.466	27223.61
806.796	27050.73
807.126	27005.98
807.457	26937.51
807.787	26862.03
808.117	26809.61
808.447	26664.3
808.777	26962.82
809.107	26696.16
809.436	26501.82
809.766	26542.95
810.096	26608.48
810.426	26345.89
810.755	26404.64
811.085	26307.25
811.414	26341.37
811.744	26203.07
812.073	26162.84
812.403	25974.37
812.732	25897.09
813.061	26123.75
813.39	25883.53
813.719	25836.52
814.049	25970.31
814.378	25767.15
814.707	25668.62
815.036	25696.41
815.365	25625
815.693	25328.97
816.022	25274.5
816.351	25329.19
816.68	25191.12
817.008	25226.14
817.337	24980.73
817.665	25168.29
817.994	25052.14
818.322	25064.57
818.651	25058.01
818.979	24919.26
819.307	24978.69
819.636	24868.64
819.964	24777.79
820.292	24841.3
820.62	24770.11
820.948	24813.5
821.276	24899.6
821.604	24718.81
821.932	24876.55
822.259	24808.98
822.587	24864.8
822.915	24720.62
823.243	24744.58
823.57	24588.2
823.898	24796.78
824.225	24730.79
824.553	24716.78
824.88	24769.89
825.207	24768.76
825.535	24568.31
825.862	24732.15
826.189	24667.52
826.516	24773.28
826.843	24905.7
827.17	24922.88
827.497	24790.45
827.824	24846.49
828.151	24877.23
828.478	24735.76
828.805	24874.29
829.131	24833.16
829.458	24779.83
829.785	24652.6
830.111	24612.38
830.438	24805.14
830.764	24803.56
831.09	24769.89
831.417	24658.7
831.743	24816.44
832.069	24709.32
832.395	24625.93
832.722	24823.22
833.048	24676.33
833.374	24783.67
833.7	24556.11
834.026	24673.39
834.351	24682.43
834.677	24783.67
835.003	24589.78
835.329	24557.24
835.654	24541.42
835.98	24353.63
836.306	24488.31
836.631	24471.14
836.956	24592.71
837.282	24644.24
837.607	24414.41
837.932	24468.2
838.258	24362.66
838.583	24315.43
838.908	24321.08
839.233	24350.24
839.558	24179.62
839.883	24160.86
840.208	24117.93
840.533	24117.93
840.858	24094.87
841.182	24081.99
841.507	24050.58
841.832	23950.47
842.156	23926.29
842.481	23901.43
842.805	23853.07
843.13	23735.79
843.454	23818.5
843.778	23715.45
844.103	23676.81
844.427	23611.72
844.751	23578.96
845.075	23459.19
845.399	23446.3
845.723	23253.32
846.047	23320.43
846.371	23240.89
846.695	23031.17
847.019	22930.84
847.343	22985.3
847.666	22801.12
847.99	22665.76
848.313	22584.18
848.637	22602.48
848.96	22430.06
849.284	22468.03
849.607	22235.04
849.931	22237.97
850.254	22059
850.577	22023.29
850.9	21922.5
851.223	21908.94
851.546	21969.96
851.869	21653.36
852.192	21767.93
852.515	21560.7
852.838	21416.3
853.161	21377.21
853.483	21348.51
853.806	21263.08
854.129	21289.07
854.451	21236.42
854.774	21032.81
855.096	20966.14
855.419	20963.43
855.741	20795.75
856.063	20751.46
856.385	20747.17
856.708	20621.97
857.03	20680.73
857.352	20546.95
857.674	20520.96
857.996	20465.59
858.318	20316.44
858.64	20303.79
858.961	20217.24
859.283	20153.74
859.605	20072.61
859.926	20108.31
860.248	20078.48
860.57	19871.03
860.891	19952.16
861.212	19857.25
861.534	19762.33
861.855	19666.29
862.176	19864.25
862.498	19748.32
862.819	19849.79
863.14	19684.14
863.461	19623.81
863.782	19505.39
864.103	19571.38
864.424	19534.99
864.745	19521.66
865.065	19472.62
865.386	19288.67
865.707	19290.71
866.027	19306.07
866.348	19392.17
866.668	19234.66
866.989	19244.83
867.309	19036.25
867.63	19123.25
867.95	19165.51
868.27	19030.83
868.59	19065.18
868.91	19081
869.23	19066.08
869.55	18836.26
869.87	18971.39
870.19	18896.14
870.51	18763.26
870.83	18867.89
871.15	18750.16
871.469	18576.15
871.789	18763.94
872.109	18732.08
872.428	18625.19
872.748	18728.69
873.067	18645.75
873.386	18680.33
873.706	18645.98
874.025	18519.65
874.344	18459.09
874.663	18393.1
874.982	18318.53
875.301	18359.43
875.62	18290.96
875.939	18289.83
876.258	18400.56
876.577	18267.91
876.896	18249.83
877.214	18282.6
877.533	18197.4
877.852	18200.34
878.17	18125.77
878.489	18172.32
878.807	18080.57
879.125	18039.44
879.444	17978.65
879.762	18059.33
880.08	18066.56
880.398	17912.89
880.716	17943.62
881.034	17850.52
881.352	17788.83
881.67	17798.32
881.988	17746.57
882.306	17651.88
882.624	17647.13
882.941	17534.37
883.259	17609.62
883.577	17566.68
883.894	17407.37
884.212	17556.74
884.529	17368.72
884.846	17285.79
885.164	17221.38
885.481	17271.33
885.798	17231.78
886.115	17162.18
886.432	17281.72
886.75	17257.54
887.067	17258.9
887.383	17021.39
887.7	17052.35
888.017	16840.38
888.334	16908.85
888.651	16835.18
888.967	16670.44
889.284	16742.3
889.6	16657.56
889.917	16595.19
890.233	16698.69
890.55	16655.07
890.866	16599.03
891.182	16532.14
891.498	16425.47
891.815	16412.82
892.131	16262.76
892.447	16243.1
892.763	16182.09
893.079	16196.78
893.395	16160.17
893.71	16133.95
894.026	16151.13
894.342	16040.4
894.657	15887.18
894.973	15932.38
895.289	15869.1
895.604	15884.24
895.92	15719.95
896.235	15689.45
896.55	15699.62
896.865	15594.53
897.181	15558.83
897.496	15606.74
897.811	15473.41
898.126	15395.67
898.441	15383.24
898.756	15381.43
899.071	15274.77
899.386	15272.73
899.7	15141.21
900.015	15007.66
900.33	14944.61
900.644	14930.6
900.959	14900.99
901.273	14877.04
901.588	14793.88
901.902	14779.41
902.216	14680.89
902.531	14716.36
902.845	14530.83
903.159	14423.04
903.473	14492.64
903.787	14447.9
904.101	14340.56
904.415	14361.57
904.729	14284.51
905.042	14204.51
905.356	14043.84
905.67	14056.04
905.984	14141.46
906.297	14019.43
906.611	13944.86
906.924	13923.39
907.237	13916.16
907.551	13789.61
907.864	13699.22
908.177	13729.27
908.491	13687.69
908.804	13612.44
909.117	13510.29
909.43	13408.83
909.743	13395.04
910.056	13393.91
910.368	13311.43
910.681	13261.94
910.994	13185.56
911.307	13140.13
911.619	13024.21
911.932	13075.5
912.244	12929.52
912.557	12968.16
912.869	12826.7
913.181	12796.64
913.494	12796.64
913.806	12747.15
914.118	12643.65
914.43	12586.7
914.742	12609.53
915.054	12608.4
915.366	12465.12
915.678	12445.92
915.99	12396.43
916.302	12209.99
916.613	12220.38
916.925	12218.8
917.236	12195.3
917.548	12114.85
917.859	12166.15
918.171	12037.79
918.482	11924.35
918.794	11993.72
919.105	11885.03
919.416	11765.71
919.727	11770
920.038	11750.79
920.349	11614.07
920.66	11595.77
920.971	11636.67
921.282	11503.79
921.593	11488.88
921.903	11368.43
922.214	11321.43
922.525	11319.17
922.835	11242.33
923.146	11213.18
923.456	11198.04
923.767	11102.67
924.077	11119.17
924.387	11154.88
924.697	10972.28
925.008	10975.45
925.318	10819.97
925.628	10876.92
925.938	10855.45
926.248	10795.79
926.558	10668.79
926.867	10709.92
927.177	10589.92
927.487	10547.89
927.796	10439.41
928.106	10574.33
928.416	10425.86
928.725	10400.55
929.034	10343.6
929.344	10340.89
929.653	10285.07
929.962	10165.07
930.271	10143.6
930.581	10136.82
930.89	10100.21
931.199	10016.83
931.508	10072.87
931.817	9956.04
932.125	9918.98
932.434	9846.21
932.743	9770.51
933.051	9799.43
933.36	9757.85
933.669	9746.78
933.977	9642.15
934.286	9580.23
934.594	9588.82
934.902	9553.56
935.21	9476.05
935.519	9380.69
935.827	9404.87
936.135	9406.45
936.443	9257.52
936.751	9268.15
937.059	9210.52
937.367	9185.89
937.674	9271.54
937.982	9130.97
938.29	9063.63
938.597	9118.55
938.905	8977.31
939.213	8950.64
939.52	8869.29
939.827	8925.78
940.135	8904.54
940.442	8779.8
940.749	8761.94
941.056	8758.33
941.363	8708.39
941.67	8689.18
941.977	8618.45
942.284	8577.32
942.591	8548.62
942.898	8536.41
943.205	8543.87
943.511	8442.18
943.818	8467.49
944.125	8379.36
944.431	8277.66
944.738	8278.79
945.044	8254.61
945.35	8256.42
945.657	8171.23
945.963	8162.19
946.269	8164.67
946.575	8137.78
946.881	8059.59
947.187	8020.72
947.493	7989.76
947.799	7926.49
948.105	7916.77
948.41	7859.37
948.716	7849.2
949.022	7813.72
949.327	7812.82
949.633	7647.62
949.938	7634.74
950.244	7685.14
950.549	7662.54
950.854	7579.6
951.16	7540.28
951.465	7486.27
951.77	7452.6
952.075	7403.34
952.38	7401.08
952.685	7382.32
952.99	7324.69
953.294	7293.96
953.599	7293.96
953.904	7264.81
954.209	7173.96
954.513	7166.28
954.818	7175.55
955.122	7160.4
955.426	7099.62
955.731	7059.84
956.035	7017.36
956.339	7000.64
956.643	6959.05
956.948	6899.17
957.252	6895.78
957.556	6858.27
957.86	6844.03
958.163	6783.69
958.467	6846.51
958.771	6785.5
959.075	6740.08
959.378	6713.41
959.682	6664.37
959.985	6598.84
960.289	6557.48
960.592	6569.69
960.896	6547.54
961.199	6532.17
961.502	6498.28
961.805	6498.5
962.108	6394.78
962.411	6408.56
962.714	6312.07
963.017	6311.39
963.32	6278.85
963.623	6263.25
963.926	6249.92
964.228	6174.44
964.531	6192.52
964.833	6191.16
965.136	6131.96
965.438	6065.29
965.741	6063.48
966.043	6043.6
966.345	5981.45
966.648	6043.15
966.95	5954.33
967.252	5937.39
967.554	5897.16
967.856	5942.58
968.158	5915.47
968.46	5894.9
968.761	5824.62
969.063	5754.79
969.365	5801.8
969.666	5730.84
969.968	5661.01
970.269	5627.11
970.571	5660.11
970.872	5647.9
971.174	5612.88
971.475	5477.51
971.776	5590.5
972.077	5520.22
972.378	5513.44
972.679	5462.82
972.98	5473.22
973.281	5394.8
973.582	5430.73
973.883	5348.48
974.183	5346.89
974.484	5305.31
974.785	5287.91
975.085	5307.12
975.386	5294.01
975.686	5201.13
975.986	5209.95
976.287	5203.39
976.587	5147.8
976.887	5109.39
977.187	5129.72
977.487	5061.25
977.787	5057.86
978.087	5027.35
978.387	4998.43
978.687	5021.48
978.987	4970.63
979.286	4943.51
979.586	4918.88
979.885	4903.74
980.185	4881.82
980.484	4819.45
980.784	4801.37
981.083	4827.36
981.382	4793.69
981.682	4778.77
981.981	4769.28
982.28	4745.33
982.579	4686.12
982.878	4712.56
983.177	4614.71
983.475	4618.55
983.774	4624.2
984.073	4587.37
984.372	4549.17
984.67	4540.81
984.969	4535.62
985.267	4514.15
985.566	4455.84
985.864	4438.67
986.162	4425.79
986.461	4393.7
986.759	4402.96
987.057	4394.6
987.355	4389.86
987.653	4316.19
987.951	4329.07
988.249	4298.33
988.547	4272.35
988.844	4234.15
989.142	4233.25
989.44	4216.75
989.737	4176.3
990.035	4209.97
990.332	4189.18
990.63	4139.02
990.927	4152.57
991.224	4101.95
991.521	4118.23
991.819	4079.81
992.116	3996.87
992.413	4062.63
992.71	3978.57
993.006	3996.65
993.303	3975.18
993.6	3942.18
993.897	3927.95
994.193	3954.84
994.49	3855.86
994.787	3885.46
995.083	3818.35
995.379	3826.93
995.676	3803.88
995.972	3779.48
996.268	3787.16
996.565	3761.62
996.861	3740.16
997.157	3677.56
997.453	3644.34
997.749	3657.45
998.044	3666.03
998.34	3703.09
998.636	3615.64
998.932	3614.51
999.227	3575.64
999.523	3537.9
999.818	3522.08
1000.114	3520.27
1000.409	3473.04
1000.704	3455.87
1001	3465.81
1001.295	3401.63
1001.59	3437.34
1001.885	3395.31
1002.18	3352.14
1002.475	3387.17
1002.77	3345.14
1003.065	3307.4
1003.359	3340.17
1003.654	3268.53
1003.949	3254.97
1004.243	3236.67
1004.538	3227.4
1004.832	3193.73
1005.127	3217.01
1005.421	3180.62
1005.715	3166.16
1006.009	3172.94
1006.304	3089.1
1006.598	3073.73
1006.892	3072.83
1007.186	3043
1007.48	3025.37
1007.773	3024.24
1008.067	3014.3
1008.361	2976.79
1008.655	2959.84
1008.948	2914.87
1009.242	2895.43
1009.535	2901.76
1009.829	2891.36
1010.122	2869.9
1010.415	2844.81
1010.708	2851.14
1011.001	2811.82
1011.295	2803.46
1011.588	2761.42
1011.881	2765.49
1012.173	2736.79
1012.466	2732.5
1012.759	2714.42
1013.052	2723.01
1013.344	2667.87
1013.637	2661.31
1013.93	2667.19
1014.222	2671.03
1014.514	2626.29
1014.807	2596.46
1015.099	2612.73
1015.391	2589.9
1015.683	2554.65
1015.976	2530.02
1016.268	2512.17
1016.56	2518.72
1016.851	2460.19
1017.143	2489.12
1017.435	2427.87
1017.727	2428.33
1018.018	2430.13
1018.31	2397.14
1018.602	2398.5
1018.893	2376.58
1019.185	2341.32
1019.476	2327.99
1019.767	2335.9
1020.058	2324.83
1020.35	2283.7
1020.641	2276.69
1020.932	2257.48
1021.223	2285.05
1021.514	2256.81
1021.804	2229.01
1022.095	2183.81
1022.386	2183.13
1022.677	2170.03
1022.967	2154.89
1023.258	2129.58
1023.548	2084.61
1023.839	2104.94
1024.129	2095.68
1024.419	2076.7
1024.709	2066.53
1025	2060.65
1025.29	2040.54
1025.58	2031.05
1025.87	2012.29
1026.16	2015.46
1026.449	1970.94
1026.739	1969.81
1027.029	1962.58
1027.319	1920.99
1027.608	1905.18
1027.898	1920.54
1028.187	1915.12
1028.477	1885.29
1028.766	1864.05
1029.055	1858.85
1029.344	1854.56
1029.634	1825.4
1029.923	1755.58
1030.212	1778.85
1030.501	1787.21
1030.79	1742.69
1031.078	1777.72
1031.367	1755.35
1031.656	1740.66
1031.945	1748.12
1032.233	1721.23
1032.522	1685.75
1032.81	1665.63
1033.099	1688.23
1033.387	1661.57
1033.675	1655.46
1033.963	1673.77
1034.251	1657.95
1034.54	1601.46
1034.828	1606.43
1035.116	1595.13
1035.403	1573.21
1035.691	1562.13
1035.979	1574.11
1036.267	1554.68
1036.554	1526.2
1036.842	1503.6
1037.129	1531.63
1037.417	1537.5
1037.704	1477.39
1037.992	1457.5
1038.279	1419.54
1038.566	1461.57
1038.853	1461.57
1039.14	1461.57
