Data from 635_FLMS001491_006.txt Node
Date: Thu Apr 19 16:46:27 BST 2018
User: hsy
Spectrometer: FLMS00149
Trigger mode: 0
Integration Time (sec): 1.000000E-2
Scans to average: 10
Electric dark correction enabled: true
Nonlinearity correction enabled: false
Boxcar width: 0
XAxis mode: Wavelengths
Number of Pixels in Spectrum: 2048
>>>>>Begin Spectral Data<<<<<
341.393	-20.3
341.776	-20.3
342.16	-20.3
342.543	-65.04
342.927	-51.03
343.31	-74.53
343.693	-72.95
344.077	-65.04
344.46	-62.1
344.843	-57.58
345.226	-27.3
345.61	-21.65
345.993	-21.43
346.376	-16.68
346.759	-15.32
347.142	32.81
347.525	45.46
347.908	63.54
348.291	85.92
348.674	112.81
349.057	94.05
349.44	149.42
349.823	159.36
350.206	184.9
350.588	223.09
350.971	269.41
351.354	266.93
351.737	285.46
352.119	280.94
352.502	312.8
352.884	320.26
353.267	307.83
353.65	325.23
354.032	337.89
354.414	340.82
354.797	355.97
355.179	362.97
355.562	382.86
355.944	377.21
356.326	376.76
356.709	393.93
357.091	403.65
357.473	389.41
357.855	383.54
358.238	412.69
358.62	418.11
359.002	390.54
359.384	388.96
359.766	380.37
360.148	406.36
360.53	407.94
360.912	379.92
361.294	376.98
361.676	394.83
362.057	394.83
362.439	380.15
362.821	380.15
363.203	409.98
363.584	390.31
363.966	377.43
364.348	351.22
364.729	390.31
365.111	378.56
365.493	369.98
365.874	394.16
366.256	364.78
366.637	386.02
367.019	363.2
367.4	374.5
367.781	384.89
368.163	377.66
368.544	380.15
368.925	367.94
369.306	384.21
369.688	362.07
370.069	382.86
370.45	385.12
370.831	382.41
371.212	397.09
371.593	393.03
371.974	390.77
372.355	379.24
372.736	399.13
373.117	404.55
373.498	391.67
373.879	365
374.26	412.01
374.641	378.56
375.021	407.04
375.402	392.12
375.783	395.29
376.163	431.9
376.544	425.34
376.925	396.19
377.305	397.55
377.686	414.72
378.066	412.23
378.447	403.65
378.827	436.64
379.208	403.65
379.588	407.94
379.968	432.8
380.349	419.69
380.729	420.14
381.109	431.44
381.489	447.26
381.87	438.67
382.25	419.69
382.63	430.09
383.01	444.78
383.39	482.29
383.77	446.58
384.15	446.58
384.53	462.86
384.91	474.38
385.29	480.03
385.67	455.17
386.049	483.87
386.429	479.35
386.809	499.69
387.189	493.81
387.568	501.27
387.948	505.11
388.328	511.89
388.707	517.32
389.087	509.41
389.466	515.74
389.846	522.97
390.225	499.92
390.605	516.64
390.984	527.03
391.363	533.14
391.743	550.76
392.122	540.82
392.501	534.72
392.881	558.22
393.26	586.02
393.639	563.64
394.018	581.27
394.397	576.3
394.776	575.17
395.155	570.2
395.534	591.67
395.913	605.9
396.292	602.06
396.671	594.83
397.05	597.77
397.429	617.2
397.808	613.13
398.186	634.83
398.565	622.4
398.944	649.97
399.323	653.58
399.701	674.6
400.08	664.66
400.458	665.11
400.837	686.8
401.215	666.47
401.594	682.51
401.972	693.36
402.351	693.36
402.729	702.62
403.107	703.98
403.486	735.16
403.864	752.11
404.242	751.21
404.62	750.98
404.999	787.82
405.377	787.37
405.755	793.92
406.133	812.45
406.511	828.95
406.889	844.54
407.267	840.02
407.645	841.38
408.023	868.95
408.401	864.88
408.779	909.17
409.156	938.32
409.534	915.72
409.912	967.02
410.29	1004.54
410.667	1012.67
411.045	1038.43
411.422	1035.72
411.8	1020.35
412.178	1098.54
412.555	1072.33
412.933	1129.05
413.31	1118.66
413.687	1152.1
414.065	1185.1
414.442	1194.36
414.819	1226.22
415.197	1224.87
415.574	1263.74
415.951	1278.43
416.328	1269.16
416.705	1291.76
417.082	1278.65
417.46	1338.54
417.837	1350.74
418.214	1352.32
418.591	1411.76
418.967	1400.91
419.344	1399.33
419.721	1417.41
420.098	1430.51
420.475	1489.27
420.852	1464.41
421.228	1492.66
421.605	1513
421.982	1548.7
422.358	1576.05
422.735	1565.88
423.111	1582.83
423.488	1613.11
423.864	1635.03
424.241	1658.98
424.617	1652.88
424.994	1691.3
425.37	1724.52
425.746	1740.34
426.123	1779.66
426.499	1760.45
426.875	1795.7
427.251	1833.67
427.627	1877.96
428.003	1879.54
428.379	1910.27
428.756	1943.04
429.132	1997.73
429.507	1996.15
429.883	2013.77
430.259	2056.71
430.635	2086.54
431.011	2089.48
431.387	2124.05
431.763	2179.87
432.138	2175.35
432.514	2219.87
432.89	2286.08
433.265	2332.41
433.641	2329.02
434.016	2368.57
434.392	2402.92
434.767	2451.73
435.143	2439.53
435.518	2508.68
435.894	2518.39
436.269	2581.9
436.644	2605.85
437.02	2651.27
437.395	2618.05
437.77	2700.99
438.145	2767.2
438.52	2760.87
438.895	2834.77
439.271	2818.27
439.646	2854.66
440.021	2901.44
440.395	2902.11
440.77	2901.66
441.145	2934.65
441.52	3017.59
441.895	3023.47
442.27	3031.6
442.645	3006.97
443.019	3073.18
443.394	3075.22
443.769	3113.63
444.143	3133.75
444.518	3183.69
444.892	3143.01
445.267	3172.84
445.641	3208.09
446.016	3271.14
446.39	3253.97
446.764	3310.69
447.139	3289
447.513	3310.24
447.887	3361.99
448.262	3371.93
448.636	3459.61
449.01	3477.47
449.384	3465.94
449.758	3473.62
450.132	3558.59
450.506	3571.25
450.88	3612.38
451.254	3601.76
451.628	3676.1
452.002	3728.31
452.376	3768.53
452.75	3812.82
453.123	3868.87
453.497	3911.58
453.871	3938.92
454.244	4042.65
454.618	4071.12
454.992	4132.36
455.365	4173.27
455.739	4244.22
456.112	4269.08
456.486	4312.02
456.859	4391.57
457.232	4469.76
457.606	4505.69
457.979	4553.59
458.352	4638.79
458.725	4729.41
459.099	4693.25
459.472	4791.55
459.845	4924.66
460.218	4900.48
460.591	5025.9
460.964	5050.53
461.337	5124.43
461.71	5228.61
462.083	5295.72
462.456	5317.19
462.829	5348.15
463.201	5481.48
463.574	5472.44
463.947	5519.9
464.32	5625.43
464.692	5721.93
465.065	5775.71
465.438	5877.85
465.81	5945.87
466.183	5936.38
466.555	6103.84
466.928	6143.16
467.3	6078.07
467.672	6290.95
468.045	6362.36
468.417	6432.19
468.789	6488.69
469.161	6570.04
469.534	6716.93
469.906	6742.69
470.278	6843.48
470.65	6868.79
471.022	7063.13
471.394	7152.4
471.766	7219.97
472.138	7320.53
472.51	7509.68
472.882	7566.4
473.253	7701.99
473.625	7812.94
473.997	7940.85
474.369	7989.66
474.74	8093.84
475.112	8167.74
475.484	8409.09
475.855	8540.38
476.227	8648.4
476.598	8897.21
476.97	8881.84
477.341	9162.97
477.713	9244.55
478.084	9372.45
478.455	9574.48
478.827	9668.94
479.198	9950.97
479.569	10031.19
479.94	10246.1
480.311	10367.91
480.682	10639.54
481.053	10854.67
481.424	11037.04
481.795	11093.54
482.166	11309.35
482.537	11456.69
482.908	11713.86
483.279	11845.61
483.65	12114.53
484.021	12288.53
484.391	12548.64
484.762	12681.74
485.133	12752.02
485.503	12987.05
485.874	13316.08
486.244	13383.42
486.615	13676.29
486.985	13945.44
487.356	14151.99
487.726	14277.86
488.097	14618.87
488.467	14671.52
488.837	15001.23
489.207	15320.09
489.578	15399.19
489.948	15680.76
490.318	15903.8
490.688	15951.94
491.058	16243.46
491.428	16600.06
491.798	16705.37
492.168	17034.4
492.538	17108.97
492.908	17303.99
493.278	17602.07
493.648	17660.59
494.017	17911.21
494.387	18210.64
494.757	18254.93
495.126	18519.1
495.496	18652.43
495.866	18853.33
496.235	18965.42
496.605	19235.02
496.974	19308.69
497.344	19585.74
497.713	19689.47
498.082	19810.37
498.452	20067.54
498.821	20201.55
499.19	20316.8
499.559	20434.99
499.928	20642.66
500.298	20751.14
500.667	21020.96
501.036	21037
501.405	21147.96
501.774	21263.89
502.143	21455.98
502.512	21599.25
502.88	21818.23
503.249	21989.07
503.618	22102.29
503.987	22214.15
504.356	22296.63
504.724	22490.75
505.093	22562.39
505.462	22720.12
505.83	22824.53
506.199	23075.14
506.567	23343.16
506.936	23417.28
507.304	23714
507.672	23716.03
508.041	23977.27
508.409	24183.81
508.777	24242.34
509.145	24476.91
509.514	24535.44
509.882	24772.95
510.25	24789
510.618	25039.61
510.986	25115.09
511.354	25450.45
511.722	25573.16
512.09	25820.83
512.458	25678.69
512.826	25936.31
513.193	26095.85
513.561	26366.81
513.929	26383.3
514.297	26597.99
514.664	26847.47
515.032	26996.62
515.4	27134.02
515.767	27281.58
516.135	27453.78
516.502	27404.29
516.869	27913.66
517.237	27921.34
517.604	27903.04
517.972	28314.78
518.339	28510.25
518.706	28556.81
519.073	28619.85
519.44	28854.2
519.808	29117.24
520.175	29216.68
520.542	29639.04
520.909	29746.83
521.276	29777.11
521.643	30123.32
522.009	30190.43
522.376	30344.56
522.743	30584.32
523.11	30897.76
523.477	31129.17
523.843	31355.83
524.21	31708.81
524.577	31850.96
524.943	32044.17
525.31	32170.27
525.676	32535.01
526.043	32629.01
526.409	32820.42
526.776	33125.27
527.142	33168.44
527.508	33390.8
527.874	33605.94
528.241	33821.3
528.607	33919.38
528.973	34215.19
529.339	34231.46
529.705	34487.95
530.071	34689.53
530.437	34798
530.803	34973.13
531.169	35146.69
531.535	35102.4
531.901	35301.71
532.267	35409.96
532.632	35504.65
532.998	35710.29
533.364	35961.58
533.73	35946.44
534.095	36282.03
534.461	36199.54
534.826	36425.75
535.192	36532.64
535.557	36761.56
535.923	36670.04
536.288	36781.22
536.653	36858.06
537.019	36759.3
537.384	36847.21
537.749	36969.47
538.114	36986.41
538.479	37033.42
538.845	37000.43
539.21	37009.46
539.575	37122.46
539.94	37088.33
540.305	37283.81
540.67	37312.06
541.034	37458.94
541.399	37401.32
541.764	37398.16
542.129	37480.64
542.494	37552.73
542.858	37728.99
543.223	37655.78
543.587	37680.18
543.952	37691.93
544.316	37726.51
544.681	37673.85
545.045	37746.62
545.41	37905.94
545.774	37702.78
546.138	37912.49
546.503	37971.02
546.867	37853.74
547.231	38108.42
547.595	38024.81
547.959	37962.66
548.324	38113.39
548.688	38149.77
549.052	38141.86
549.416	38076.78
549.779	38227.96
550.143	38239.94
550.507	38449.2
550.871	38353.84
551.235	38353.61
551.599	38495.75
551.962	38484
552.326	38540.27
552.689	38626.82
553.053	38353.38
553.417	38529.2
553.78	38732.58
554.143	38666.14
554.507	38839.25
554.87	38815.74
555.234	39120.14
555.597	38825.24
555.96	39004.67
556.323	38906.14
556.686	38986.81
557.05	39177.09
557.413	39246.02
557.776	39027.72
558.139	39375.28
558.502	39239.24
558.865	39263.87
559.228	39597.42
559.59	39662.73
559.953	39582.73
560.316	39890.07
560.679	39878.32
561.041	39959.67
561.404	39956.28
561.767	40288.7
562.129	40115.15
562.492	40417.96
562.854	40365.99
563.217	40325.54
563.579	40497.06
563.941	40602.36
564.304	40769.82
564.666	40968.23
565.028	40887.78
565.39	41048.91
565.753	41145.85
566.115	41114.67
566.477	41335
566.839	41308.56
567.201	41715.33
567.563	41519.4
567.925	41795.78
568.287	41820.64
568.648	41828.1
569.01	41971.37
569.372	42061.54
569.734	42236.67
570.095	42212.72
570.457	42550.56
570.819	42492.94
571.18	42377.46
571.542	42790.78
571.903	42733.83
572.265	42695.42
572.626	42913.04
572.987	42864.68
573.349	43018.35
573.71	43031.68
574.071	43241.39
574.432	43239.13
574.794	43583.08
575.155	43395.96
575.516	43566.81
575.877	43527.03
576.238	43485.45
576.599	43628.27
576.96	43640.7
577.32	43531.1
577.681	43749.4
578.042	43958.66
578.403	43801.38
578.763	43864.65
579.124	43874.82
579.485	44002.28
579.845	44078.88
580.206	43916.85
580.566	44088.6
580.927	43958.89
581.287	44053.8
581.648	43958.89
582.008	44129.73
582.368	43975.16
582.728	44030.07
583.089	44036.85
583.449	43976.29
583.809	43969.51
584.169	44082.5
584.529	43952.33
584.889	44221.03
585.249	43848.83
585.609	43728.61
585.969	44108.94
586.329	43792.34
586.688	43890.87
587.048	43871.66
587.408	43822.84
587.768	43724.99
588.127	43822.62
588.487	43728.61
588.846	44047.47
589.206	43441.16
589.565	43490.42
589.925	43774.26
590.284	43518.45
590.643	43641.15
591.003	43643.41
591.362	43782.62
591.721	43554.6
592.08	43717.76
592.44	43823.52
592.799	43615.39
593.158	43469.63
593.517	43566.35
593.876	43630.99
594.235	43484.1
594.593	43592.12
594.952	43629.18
595.311	43417.88
595.67	43554.6
596.029	43708.95
596.387	43799.34
596.746	43841.38
597.104	43515.28
597.463	43474.15
597.822	43742.85
598.18	43433.02
598.538	43483.87
598.897	43824.2
599.255	43487.49
599.613	43855.39
599.972	43623.98
600.33	43795.73
600.688	43552.12
601.046	43808.16
601.404	43901.26
601.762	43784.88
602.12	43853.8
602.478	43817.65
602.836	43924.76
603.194	43656.52
603.552	43809.51
603.91	43775.39
604.268	43963.63
604.625	43792.11
604.983	44112.1
605.341	43700.36
605.698	44157.07
606.056	44209.05
606.413	44022.16
606.771	44216.28
607.128	44112.1
607.485	44130.86
607.843	44168.82
608.2	44326.56
608.557	44429.61
608.914	44240.46
609.272	44471.42
609.629	44524.97
609.986	44666.89
610.343	44573.79
610.7	44992.98
611.057	44817.17
611.414	44938.52
611.771	44997.96
612.127	45079.76
612.484	45086.99
612.841	45127.9
613.198	45055.35
613.554	45026.88
613.911	45308.46
614.267	45275.24
614.624	45369.7
614.98	45502.8
615.337	45745.05
615.693	45584.83
616.05	45511.84
616.406	45730.37
616.762	45580.99
617.118	45736.01
617.475	45664.38
617.831	46000.41
618.187	45962.45
618.543	46009.91
618.899	46277.92
619.255	46134.87
619.611	46088.32
619.967	46303.46
620.323	46432.95
620.678	46212.39
621.034	46248.32
621.39	46213.52
621.746	46360.63
622.101	46514.3
622.457	46315.89
622.812	46502.77
623.168	46589.78
623.523	46543.45
623.879	46613.96
624.234	46439.73
624.589	46537.8
624.945	46472.49
625.3	46636.56
625.655	46650.57
626.01	46664.58
626.365	46755.65
626.72	46580.96
627.075	46666.61
627.43	46596.56
627.785	46762.88
628.14	46618.25
628.495	46620.06
628.85	46630.23
629.205	46726.72
629.559	46735.08
629.914	46543.23
630.269	46607.4
630.623	46328.54
630.978	46277.7
631.332	46608.76
631.687	46404.7
632.041	46422.32
632.396	46376.45
632.75	46355.89
633.104	46390.91
633.459	46245.38
633.813	46237.47
634.167	46275.21
634.521	46288.54
634.875	46187.08
635.229	46129.9
635.583	45985.5
635.937	45859.18
636.291	45992.96
636.645	45900.98
636.999	45747.09
637.352	45942.11
637.706	45695.79
638.06	45856.01
638.413	45718.39
638.767	45679.07
639.121	45695.56
639.474	45529.01
639.828	45450.6
640.181	45672.51
640.534	45589.8
640.888	45390.71
641.241	45345.29
641.594	45341.68
641.947	45452.86
642.301	45314.78
642.654	45417.83
643.007	45207.22
643.36	45271.85
643.713	45229.81
644.066	45533.31
644.419	45182.13
644.771	44684.52
645.124	44348.03
645.477	44266
645.83	44162.5
646.182	44199.56
646.535	43964.99
646.888	44166.11
647.24	44097.87
647.593	44351.64
647.945	44163.4
648.298	44004.54
648.65	43818.33
649.002	43817.65
649.355	43710.53
649.707	43634.83
650.059	43804.31
650.411	44459.21
650.763	44443.39
651.115	44869.37
651.467	44669.6
651.819	44898.97
652.171	44841.12
652.523	44640
652.875	44753.89
653.227	44705.31
653.578	44969.26
653.93	44929.71
654.282	44620.34
654.633	44728.81
654.985	44824.17
655.337	44649.49
655.688	44727
656.039	44964.51
656.391	44595.48
656.742	44682.26
657.094	44794.57
657.445	44875.7
657.796	44887.22
658.147	44856.94
658.498	44857.17
658.849	44952.76
659.2	44941.01
659.551	44757.28
659.902	44997.5
660.253	44924.28
660.604	45108.91
660.955	44944.62
661.306	45006.99
661.656	44901.91
662.007	44927.22
662.358	45018.52
662.708	44988.92
663.059	45026.88
663.409	44729.71
663.76	45026.43
664.11	45078.86
664.461	45243.15
664.811	45259.42
665.161	45224.62
665.511	45022.36
665.862	45164.96
666.212	45240.43
666.562	45338.06
666.912	45226.42
667.262	45034.79
667.612	45210.61
667.962	45124.73
668.312	45003.15
668.662	45365.63
669.011	45261.23
669.361	45111.62
669.711	45160.21
670.06	44964.06
670.41	45003.83
670.76	45079.31
671.109	45045.64
671.459	45004.06
671.808	44962.48
672.157	45184.39
672.507	44970.84
672.856	44885.87
673.205	44917.96
673.554	45019.88
673.904	44821.46
674.253	45156.14
674.602	44938.52
674.951	44327.46
675.3	44138.54
675.649	44919.54
675.998	44804.74
676.346	44698.08
676.695	44985.98
677.044	44659.21
677.393	44651.3
677.741	44708.7
678.09	44581.7
678.438	44680.45
678.787	44591.64
679.135	44589.83
679.484	44376.95
679.832	44462.15
680.181	44399.1
680.529	44385.09
680.877	44136.06
681.225	44179.9
681.573	44460.12
681.922	44165.66
682.27	43983.52
682.618	44033.69
682.966	43892.9
683.314	43814.94
683.661	43964.99
684.009	43615.17
684.357	43386.92
684.705	43432.12
685.053	43608.16
685.4	43242.07
685.748	43105.58
686.095	43170.21
686.443	42935.86
686.79	42948.97
687.138	42981.74
687.485	42926.15
687.832	42744.23
688.18	42725.7
688.527	42417.68
688.874	42508.76
689.221	42416.55
689.568	42258.59
689.915	42049.33
690.262	42004.59
690.609	41983.35
690.956	41868.32
691.303	41709.68
691.65	41523.7
691.997	41535.22
692.344	41306.53
692.69	41223.59
693.037	41038.74
693.383	40850.27
693.73	40816.6
694.077	40561.91
694.423	40526.21
694.769	40530.95
695.116	40248.7
695.462	40069.5
695.808	40001.02
696.155	39978.65
696.501	39614.82
696.847	39852.55
697.193	39344.54
697.539	39445.56
697.885	39062.74
698.231	39056.19
698.577	38953.37
698.923	38987.27
699.269	38611
699.614	38530.55
699.96	38341.18
700.306	38316.32
700.651	38117.68
700.997	37880.4
701.342	37805.38
701.688	37773.51
702.033	37625.72
702.379	37598.15
702.724	37415.56
703.069	37439.74
703.415	36953.87
703.76	36865.29
704.105	36927.88
704.45	36855.8
704.795	36672.07
705.14	36500.55
705.485	36541.68
705.83	36249.48
706.175	36217.4
706.52	36061.92
706.865	35919.1
707.209	35840.23
707.554	35755.26
707.899	35708.93
708.243	35627.81
708.588	35391.43
708.932	35373.35
709.277	35386.91
709.621	35110.31
709.966	34835.96
710.31	35027.37
710.654	34725.23
710.998	34803.87
711.342	34813.82
711.687	34765
712.031	34561.39
712.375	34413.83
712.719	34504.22
713.063	34351.23
713.407	34461.06
713.75	34252.02
714.094	34278.24
714.438	34233.27
714.782	34082.54
715.125	33925.7
715.469	33997.79
715.812	33807.97
716.156	33901.07
716.499	33860.62
716.843	33851.81
717.186	33658.37
717.53	34044.8
717.873	33804.58
718.216	33692.72
718.559	33643.45
718.902	33488.2
719.246	33555.32
719.589	33398.71
719.932	33333.86
720.275	33383.57
720.617	33512.83
720.96	33445.72
721.303	33374.98
721.646	33460.18
721.989	33263.8
722.331	33289.11
722.674	33271.48
723.016	33254.31
723.359	33211.6
723.701	33311.93
724.044	33239.62
724.386	33043.24
724.729	33273.74
725.071	33181.32
725.413	33175.89
725.755	33144.03
726.097	33106.06
726.439	33047.76
726.782	33030.13
727.124	33297.47
727.465	33131.6
727.807	32927.09
728.149	33110.81
728.491	33153.29
728.833	33242.56
729.175	33287.08
729.516	33125.73
729.858	33140.41
730.199	33192.62
730.541	33349.22
730.882	33265.38
731.224	33145.61
731.565	33216.12
731.906	33252.28
732.248	33175.44
732.589	32974.09
732.93	33222.9
733.271	33236.23
733.612	33220.19
733.953	33396.9
734.294	33300.86
734.635	33236.91
734.976	33564.58
735.317	33437.36
735.658	33351.93
735.999	33427.41
736.339	33471.7
736.68	33587.41
737.021	33572.49
737.361	33506.05
737.702	33738.36
738.042	33777.46
738.383	33743.11
738.723	33803.45
739.063	33842.54
739.404	33976.55
739.744	33942.65
740.084	33978.58
740.424	34231.01
740.764	33988.98
741.104	34322.08
741.444	34194.4
741.784	34265.81
742.124	34501.73
742.464	34516.65
742.804	34400.95
743.143	34550.77
743.483	34701.28
743.823	34622.86
744.162	34734.5
744.502	34875.06
744.841	34848.39
745.181	35196.41
745.52	35061.04
745.86	35357.08
746.199	35485.21
746.538	35364.54
746.877	35677.07
747.216	35691.76
747.556	35832.77
747.895	35963.84
748.234	36077.06
748.573	36131.52
748.911	36133.33
749.25	36406.99
749.589	36410.16
749.928	36712.3
750.267	36902.57
750.605	36875.68
750.944	37009.46
751.283	37104.6
751.621	37415.78
751.96	37185.73
752.298	37459.4
752.636	37606.74
752.975	37640.86
753.313	37812.16
753.651	38155.42
753.989	37918.37
754.327	38235.87
754.666	38087.63
755.004	38496.21
755.342	38620.72
755.679	38781.17
756.017	38691.45
756.355	39047.15
756.693	39024.1
757.031	39325.34
757.368	39219.8
757.706	39257.54
758.044	39360.82
758.381	39561.71
758.719	39448.5
759.056	39843.97
759.394	39729.62
759.731	39627.02
760.068	39907.92
760.405	39992.66
760.743	39908.82
761.08	40179.32
761.417	39992.21
761.754	40162.38
762.091	40246.22
762.428	40132.55
762.765	40149.72
763.102	40480.56
763.438	40368.25
763.775	40194.01
764.112	40323.73
764.449	40462.93
764.785	40440.11
765.122	40450.73
765.458	40260.9
765.795	40453.89
766.131	40412.31
766.467	40482.59
766.804	40358.98
767.14	40232.66
767.476	40214.35
767.812	40104.75
768.148	40346.33
768.485	40184.97
768.821	40249.83
769.157	40168.03
769.492	40041.93
769.828	40085.09
770.164	39903.17
770.5	39684.2
770.836	39797.64
771.171	39614.37
771.507	39740.47
771.842	39456.86
772.178	39577.53
772.513	39420.93
772.849	39387.48
773.184	39344.32
773.519	39243.76
773.855	39193.36
774.19	39083.31
774.525	38945.23
774.86	38836.76
775.195	38827.72
775.53	38598.58
775.865	38599.71
776.2	38335.31
776.535	38279.49
776.87	38199.94
777.205	37958.59
777.539	38027.07
777.874	38025.03
778.209	37696.68
778.543	37741.42
778.878	37564.48
779.212	37594.53
779.547	37145.51
779.881	37403.8
780.215	37030.26
780.55	37215.34
780.884	36942.8
781.218	36808.34
781.552	36943.48
781.886	36684.95
782.22	36470.95
782.554	36378.52
782.888	36175.81
783.222	36077.06
783.556	35971.3
783.889	35864.86
784.223	35750.29
784.557	35778.31
784.89	35748.03
785.224	35463.52
785.557	35386
785.891	35208.16
786.224	35122.73
786.558	35173.81
786.891	35001.38
787.224	34729.75
787.557	34628.96
787.891	34693.14
788.224	34411.79
788.557	34494.05
788.89	34344.68
789.223	34292.25
789.556	34059.49
789.888	34000.96
790.221	33988.98
790.554	33718.7
790.887	33699.04
791.219	33570.23
791.552	33400.75
791.884	33358.26
792.217	33352.16
792.549	33102.67
792.882	32855.68
793.214	32907.43
793.546	32880.99
793.879	32675.57
794.211	32483.03
794.543	32568.9
794.875	32471.73
795.207	32473.31
795.539	32366.87
795.871	32321.23
796.203	32193.09
796.535	31840.34
796.867	32001.69
797.198	31777.06
797.53	31683.28
797.862	31504.75
798.193	31638.98
798.525	31347.69
798.856	31512.66
799.188	31011.2
799.519	31014.14
799.85	30916.07
800.182	30930.75
800.513	31059.11
800.844	30504.33
801.175	30846.46
801.506	30776.18
801.837	30498.45
802.168	30431.33
802.499	30490.31
802.83	30238.34
803.161	30139.36
803.491	30096.43
803.822	30181.4
804.153	29895.3
804.483	29883.32
804.814	29575.54
805.145	29661.86
805.475	29774.85
805.805	29650.11
806.136	29520.4
806.466	29457.8
806.796	29434.75
807.126	29223.23
807.457	29100.29
807.787	29250.12
808.117	29071.37
808.447	29000.64
808.777	28990.01
809.107	28885.61
809.436	28686.52
809.766	28727.65
810.096	28648.55
810.426	28467.09
810.755	28743.92
811.085	28496.47
811.414	28595
811.744	28316.81
812.073	28385.51
812.403	28147.32
812.732	28131.73
813.061	28289.47
813.39	28013.77
813.719	28033.88
814.049	28084.5
814.378	27995.46
814.707	27730.84
815.036	27761.8
815.365	27581.69
815.693	27392.99
816.022	27488.81
816.351	27414.91
816.68	27227.35
817.008	27309.83
817.337	27174.24
817.665	27152.55
817.994	27031.2
818.322	27238.87
818.651	27086.79
818.979	26886.12
819.307	26961.37
819.636	26875.49
819.964	26870.52
820.292	27002.5
820.62	26855.16
820.948	26854.7
821.276	27040.01
821.604	26821.26
821.932	26978.99
822.259	26847.25
822.587	26816.29
822.915	26732.22
823.243	26868.94
823.57	26774.93
823.898	26932.89
824.225	26734.25
824.553	26687.48
824.88	26749.85
825.207	26879.56
825.535	26632.56
825.862	26791.88
826.189	26698.55
826.516	26929.96
826.843	26880.92
827.17	26970.86
827.497	26865.78
827.824	26929.05
828.151	26948.03
828.478	26784.87
828.805	27017.64
829.131	27007.69
829.458	26952.33
829.785	26672.79
830.111	26635.27
830.438	26897.87
830.764	26692.45
831.09	26924.08
831.417	26755.5
831.743	26909.39
832.069	26662.84
832.395	26757.98
832.722	26799.56
833.048	26676.86
833.374	26838.88
833.7	26731.09
834.026	26888.83
834.351	26643.18
834.677	26684.09
835.003	26694.26
835.329	26636.4
835.654	26555.73
835.98	26527.71
836.306	26650.64
836.631	26512.11
836.956	26682.73
837.282	26515.05
837.607	26392.79
837.932	26427.6
838.258	26379.46
838.583	26189.18
838.908	26267.37
839.233	26427.37
839.558	26182.18
839.883	26094.27
840.208	26004.78
840.533	26099.24
840.858	26049.3
841.182	26111.45
841.507	26094.27
841.832	25953.71
842.156	26006.36
842.481	25922.07
842.805	25758.46
843.13	25759.14
843.454	25717.56
843.778	25602.76
844.103	25533.83
844.427	25470.11
844.751	25501.29
845.075	25594.62
845.399	25390.11
845.723	25214.97
846.047	25364.57
846.371	25093.17
846.695	25061.76
847.019	24978.37
847.343	24745.61
847.666	24734.53
847.99	24659.51
848.313	24612.73
848.637	24494.31
848.96	24375.67
849.284	24340.42
849.607	24151.72
849.931	24126.87
850.254	24026.53
850.577	23779.98
850.9	23761.45
851.223	23746.08
851.546	23634.9
851.869	23507.9
852.192	23650.27
852.515	23371.18
852.838	23352.42
853.161	23220.67
853.483	23031.75
853.806	23142.03
854.129	23032.43
854.451	22925.99
854.774	22812.1
855.096	22731.87
855.419	22840.57
855.741	22571.43
856.063	22529.17
856.385	22427.25
856.708	22402.62
857.03	22412.33
857.352	22314.71
857.674	22155.17
857.996	22154.71
858.318	21974.38
858.64	22073.59
858.961	21920.37
859.283	21825.01
859.605	21755.18
859.926	21672.24
860.248	21724.89
860.57	21612.13
860.891	21552.24
861.212	21554.05
861.534	21536.2
861.855	21371.68
862.176	21447.61
862.498	21489.19
862.819	21440.16
863.14	21298.24
863.461	21201.52
863.782	21179.82
864.103	21223.21
864.424	21049.43
864.745	21126.49
865.065	20986.61
865.386	20974.86
865.707	20935.31
866.027	20855.77
866.348	20804.24
866.668	20805.6
866.989	20770.57
867.309	20629.78
867.63	20604.02
867.95	20665.04
868.27	20554.08
868.59	20638.6
868.91	20526.73
869.23	20454.87
869.55	20400.41
869.87	20486.06
870.19	20436.79
870.51	20417.81
870.83	20272.05
871.15	20282.45
871.469	20201.32
871.789	20268.44
872.109	20220.3
872.428	20120.19
872.748	20234.54
873.067	20198.16
873.386	20161.09
873.706	20155.44
874.025	19925.17
874.344	19909.58
874.663	19905.51
874.982	19893.98
875.301	19850.59
875.62	19811.27
875.939	19829.58
876.258	19802.69
876.577	19696.25
876.896	19695.34
877.214	19666.42
877.533	19665.29
877.852	19651.28
878.17	19738.51
878.489	19657.83
878.807	19548.91
879.125	19456.93
879.444	19391.85
879.762	19375.35
880.08	19494.22
880.398	19345.3
880.716	19400.21
881.034	19337.39
881.352	19294.22
881.67	19143.49
881.988	19039.99
882.306	19166.77
882.624	19021.24
882.941	19022.14
883.259	18997.51
883.577	19015.81
883.894	18901.24
884.212	18880.68
884.529	18886.1
884.846	18756.84
885.164	18715.71
885.481	18751.41
885.798	18727.46
886.115	18561.81
886.432	18564.3
886.75	18636.39
887.067	18513.23
887.383	18444.76
887.7	18438.88
888.017	18326.79
888.334	18329.96
888.651	18234.14
888.967	18151.88
889.284	18161.82
889.6	18096.06
889.917	18039.12
890.233	18036.86
890.55	17994.15
890.866	17934.71
891.182	17782.4
891.498	17841.83
891.815	17755.28
892.131	17579.69
892.447	17642.52
892.763	17554.84
893.079	17460.6
893.395	17510.99
893.71	17393.26
894.026	17400.94
894.342	17400.49
894.657	17241.62
894.973	17239.59
895.289	17235.75
895.604	17133.15
895.92	16968.64
896.235	16997.56
896.55	16988.3
896.865	16873.05
897.181	16829.66
897.496	16825.59
897.811	16774.29
898.126	16632.37
898.441	16655.42
898.756	16508.53
899.071	16497.46
899.386	16562.32
899.7	16407.07
900.015	16261.54
900.33	16212.05
900.644	16169.33
900.959	16169.11
901.273	16161.65
901.588	16015.67
901.902	15933.63
902.216	15881.88
902.531	15873.07
902.845	15860.64
903.159	15633.08
903.473	15701.1
903.787	15629.24
904.101	15483.7
904.415	15578.84
904.729	15495.45
905.042	15422.24
905.356	15309.24
905.67	15193.77
905.984	15282.58
906.297	15200.55
906.611	15116.26
906.924	15052.75
907.237	15050.95
907.551	15006.65
907.864	14859.99
908.177	14818.86
908.491	14772.08
908.804	14634.69
909.117	14589.94
909.43	14568.47
909.743	14520.11
910.056	14505.2
910.368	14414.8
910.681	14368.03
910.994	14310.4
911.307	14208.71
911.619	14061.14
911.932	14094.59
912.244	13979.11
912.557	14030.63
912.869	13935.95
913.181	13873.35
913.494	13834.03
913.806	13751.77
914.118	13657.54
914.43	13582.74
914.742	13558.78
915.054	13518.56
915.366	13483.08
915.678	13430.42
915.99	13333.7
916.302	13312.91
916.613	13103.2
916.925	13189.98
917.236	13110.66
917.548	12982.07
917.859	13055.52
918.171	12941.62
918.482	12900.49
918.794	12864.11
919.105	12752.25
919.416	12733.94
919.727	12703.89
920.038	12685.81
920.349	12590.9
920.66	12537.34
920.971	12527.85
921.282	12415.08
921.593	12411.02
921.903	12320.85
922.214	12297.8
922.525	12176.9
922.835	12117.69
923.146	12089.44
923.456	11992.04
923.767	12003.79
924.077	11950.69
924.387	11968.99
924.697	11792.05
925.008	11855.55
925.318	11813.74
925.628	11727.42
925.938	11700.98
926.248	11519.06
926.558	11534.43
926.867	11493.07
927.177	11483.36
927.487	11383.92
927.796	11357.26
928.106	11265.28
928.416	11272.74
928.725	11206.98
929.034	11221.67
929.344	11192.06
929.653	11140.31
929.962	11062.8
930.271	10978.74
930.581	10889.25
930.89	10872.98
931.199	10853.54
931.508	10788.23
931.817	10766.54
932.125	10705.07
932.434	10722.02
932.743	10566.54
933.051	10534.91
933.36	10509.14
933.669	10532.19
933.977	10395.25
934.286	10400.22
934.594	10402.71
934.902	10227.8
935.21	10214.92
935.519	10214.24
935.827	10128.36
936.135	10042.94
936.443	9995.49
936.751	9948.93
937.059	9987.12
937.367	9917.75
937.674	9954.58
937.982	9859.22
938.29	9827.81
938.597	9863.06
938.905	9671.43
939.213	9740.13
939.52	9631.65
939.827	9650.64
940.135	9511.66
940.442	9503.07
940.749	9435.73
941.056	9510.3
941.363	9386.24
941.67	9367.25
941.977	9183.08
942.284	9209.29
942.591	9206.13
942.898	9184.21
943.205	9148.73
943.511	9099.92
943.818	9116.41
944.125	9022.63
944.431	8913.93
944.738	8944.44
945.044	8915.06
945.35	8824.9
945.657	8776.99
945.963	8781.28
946.269	8786.25
946.575	8722.52
946.881	8668.06
947.187	8585.35
947.493	8495.86
947.799	8586.94
948.105	8465.13
948.41	8440.27
948.716	8421.97
949.022	8391.01
949.327	8363.89
949.633	8245.48
949.938	8239.37
950.244	8293.61
950.549	8207.74
950.854	8172.93
951.16	8134.29
951.465	8113.5
951.77	8032.37
952.075	8053.62
952.38	8007.29
952.685	7970.91
952.99	7930.91
953.294	7870.8
953.599	7864.02
953.904	7779.95
954.209	7782.21
954.513	7775.88
954.818	7720.07
955.122	7665.38
955.426	7687.07
955.731	7541.99
956.035	7532.05
956.339	7521.88
956.643	7526.85
956.948	7403.01
957.252	7391.26
957.556	7403.24
957.86	7349.68
958.163	7349.68
958.467	7356.69
958.771	7325.73
959.075	7240.53
959.378	7183.58
959.682	7149.91
959.985	7093.64
960.289	7107.43
960.592	7030.37
960.896	7004.6
961.199	7028.11
961.502	6986.3
961.805	6946.07
962.108	6915.79
962.411	6878.96
962.714	6792.63
963.017	6804.61
963.32	6809.58
963.623	6754.44
963.926	6732.07
964.228	6683.93
964.531	6655.23
964.833	6619.53
965.136	6638.51
965.438	6586.54
965.741	6504.05
966.043	6484.39
966.345	6445.07
966.648	6444.62
966.95	6494.11
967.252	6394.22
967.554	6408.46
967.856	6396.94
968.158	6366.65
968.46	6293.44
968.761	6264.51
969.063	6228.81
969.365	6186.77
969.666	6185.64
969.968	6144.29
970.269	6095.48
970.571	6073.33
970.872	6121.46
971.174	6028.13
971.475	5970.05
971.776	5959.43
972.077	5956.04
972.378	5953.11
972.679	5888.7
972.98	5871.98
973.281	5830.17
973.582	5822.49
973.883	5802.15
974.183	5764.41
974.484	5756.28
974.785	5671.76
975.085	5712.21
975.386	5669.5
975.686	5646.45
975.986	5661.81
976.287	5546.34
976.587	5518.54
976.887	5560.12
977.187	5477.19
977.487	5517.86
977.787	5448.94
978.087	5430.63
978.387	5431.99
978.687	5409.84
978.987	5344.76
979.286	5322.61
979.586	5307.93
979.885	5264.99
980.185	5222.73
980.484	5254.37
980.784	5220.47
981.083	5183.41
981.382	5119.23
981.682	5109.74
981.981	5134.37
982.28	5112.22
982.579	5063.64
982.878	5050.53
983.177	5022.28
983.475	4969.4
983.774	4982.06
984.073	4970.53
984.372	4949.97
984.67	4924.21
984.969	4916.07
985.267	4909.97
985.566	4817.09
985.864	4841.95
986.162	4778.9
986.461	4779.8
986.759	4736.19
987.057	4727.38
987.355	4705.68
987.653	4685.12
987.951	4634.5
988.249	4607.83
988.547	4611.67
988.844	4587.72
989.142	4571.22
989.44	4526.7
989.737	4538.23
990.035	4484.67
990.332	4451.22
990.63	4413.71
990.927	4441.06
991.224	4440.15
991.521	4387.95
991.819	4402.86
992.116	4342.08
992.413	4333.04
992.71	4316.31
993.006	4257.78
993.303	4268.86
993.6	4273.38
993.897	4209.2
994.193	4224.56
994.49	4208.07
994.787	4173.72
995.083	4127.62
995.379	4106.83
995.676	4055.53
995.972	4011.69
996.268	4037.68
996.565	4041.29
996.861	4005.81
997.157	3965.81
997.453	3955.42
997.749	3948.19
998.044	3933.95
998.34	3944.57
998.636	3876.1
998.932	3856.44
999.227	3816.67
999.523	3822.54
999.818	3787.97
1000.114	3769.89
1000.409	3778.25
1000.704	3714.75
1001	3725.37
1001.295	3662.09
1001.59	3681.98
1001.885	3661.87
1002.18	3633.17
1002.475	3586.16
1002.77	3621.19
1003.065	3587.07
1003.359	3529.89
1003.654	3511.36
1003.949	3478.37
1004.243	3482.21
1004.538	3445.15
1004.832	3399.73
1005.127	3408.99
1005.421	3407.18
1005.715	3386.62
1006.009	3387.75
1006.304	3392.72
1006.598	3298.26
1006.892	3284.02
1007.186	3229.34
1007.48	3274.31
1007.773	3202.67
1008.067	3240.41
1008.361	3177.59
1008.655	3176.46
1008.948	3185.04
1009.242	3116.8
1009.535	3091.03
1009.829	3129.23
1010.122	3105.05
1010.415	3057.82
1010.708	3032.05
1011.001	3020.3
1011.295	3015.56
1011.588	3000.19
1011.881	2954.09
1012.173	2955.44
1012.466	2950.93
1012.759	2879.06
1013.052	2915.9
1013.344	2884.26
1013.637	2860.76
1013.93	2834.32
1014.222	2809.46
1014.514	2776.69
1014.807	2751.61
1015.099	2787.77
1015.391	2788.9
1015.683	2726.07
1015.976	2739.41
1016.268	2716.58
1016.56	2670.71
1016.851	2676.36
1017.143	2649.46
1017.435	2628.45
1017.727	2577.83
1018.018	2582.8
1018.31	2563.82
1018.602	2545.51
1018.893	2568.11
1019.185	2538.73
1019.476	2526.3
1019.767	2505.06
1020.058	2483.37
1020.35	2434.1
1020.641	2421
1020.932	2425.74
1021.223	2403.59
1021.514	2380.09
1021.804	2354.78
1022.095	2362.69
1022.386	2350.26
1022.677	2321.79
1022.967	2310.72
1023.258	2291.73
1023.548	2265.97
1023.839	2242.02
1024.129	2230.04
1024.419	2200.44
1024.709	2192.08
1025	2178.29
1025.29	2142.13
1025.58	2153.88
1025.87	2157.5
1026.16	2132.19
1026.449	2097.39
1026.739	2063.26
1027.029	2080.89
1027.319	2047.67
1027.608	2060.33
1027.898	2034.57
1028.187	2002.7
1028.477	1996.15
1028.766	1976.94
1029.055	1963.83
1029.344	1966.54
1029.634	1925.64
1029.923	1934.23
1030.212	1897.39
1030.501	1929.71
1030.79	1874.8
1031.078	1866.89
1031.367	1871.86
1031.656	1843.16
1031.945	1854.23
1032.233	1837.28
1032.522	1809.71
1032.81	1814.68
1033.099	1781.01
1033.387	1779.2
1033.675	1771.75
1033.963	1744.86
1034.251	1769.71
1034.54	1742.6
1034.828	1684.07
1035.116	1684.29
1035.403	1668.7
1035.691	1653.56
1035.979	1669.38
1036.267	1643.16
1036.554	1640.23
1036.842	1622.15
1037.129	1594.8
1037.417	1609.72
1037.704	1580.11
1037.992	1581.92
1038.279	1538.08
1038.566	1535.14
1038.853	1535.14
1039.14	1535.14
