Data from 7415_FLMS001491_004.txt Node
Date: Thu Apr 19 16:29:47 BST 2018
User: hsy
Spectrometer: FLMS00149
Trigger mode: 0
Integration Time (sec): 1.000000E-2
Scans to average: 10
Electric dark correction enabled: true
Nonlinearity correction enabled: false
Boxcar width: 0
XAxis mode: Wavelengths
Number of Pixels in Spectrum: 2048
>>>>>Begin Spectral Data<<<<<
341.393	-13.32
341.776	-13.32
342.16	-13.32
342.543	-51.51
342.927	-67.55
343.31	-80.44
343.693	-44.05
344.077	-58.74
344.46	-75.01
344.843	-53.09
345.226	-61
345.61	-36.14
345.993	-10.38
346.376	-11.96
346.759	10.64
347.142	15.38
347.525	51.54
347.908	61.03
348.291	64.87
348.674	110.75
349.057	116.62
349.44	125.66
349.823	143.74
350.206	180.12
350.588	236.62
350.971	254.92
351.354	269.84
351.737	273.45
352.119	298.76
352.502	309.61
352.884	305.32
353.267	324.75
353.65	323.85
354.032	328.82
354.414	346.22
354.797	360.23
355.179	368.82
355.562	362.72
355.944	385.99
356.326	379.21
356.709	390.51
357.091	374.92
357.473	374.02
357.855	400
358.238	400.23
358.62	380.12
359.002	380.12
359.384	393.9
359.766	397.74
360.148	397.29
360.53	388.93
360.912	369.5
361.294	390.51
361.676	377.86
362.057	388.25
362.439	383.05
362.821	367.46
363.203	384.18
363.584	384.18
363.966	373.79
364.348	361.36
364.729	360.46
365.111	351.19
365.493	372.43
365.874	360.68
366.256	366.78
366.637	390.74
367.019	364.75
367.4	373.11
367.781	378.08
368.163	370.4
368.544	369.5
368.925	383.51
369.306	385.54
369.688	362.72
370.069	361.59
370.45	376.5
370.831	375.6
371.212	385.31
371.593	365.43
371.974	359.33
372.355	383.96
372.736	395.94
373.117	388.25
373.498	390.29
373.879	383.73
374.26	359.78
374.641	378.76
375.021	371.98
375.402	382.15
375.783	404.75
376.163	404.3
376.544	391.87
376.925	397.52
377.305	408.82
377.686	408.14
378.066	406.11
378.447	407.69
378.827	416.05
379.208	414.47
379.588	425.77
379.968	407.24
380.349	407.46
380.729	427.8
381.109	439.78
381.489	447.69
381.87	438.19
382.25	423.28
382.63	389.83
383.01	422.6
383.39	432.77
383.77	450.17
384.15	436.61
384.53	439.78
384.91	428.93
385.29	443.17
385.67	435.03
386.049	456.27
386.429	458.08
386.809	470.51
387.189	436.61
387.568	461.47
387.948	481.58
388.328	488.59
388.707	466.89
389.087	477.29
389.466	481.13
389.846	472.54
390.225	479.32
390.605	500.34
390.984	480.23
391.363	498.08
391.743	482.94
392.122	522.49
392.501	516.84
392.881	516.16
393.26	516.84
393.639	527.91
394.018	516.61
394.397	545.99
394.776	549.38
395.155	527.46
395.534	520.68
395.913	529.72
396.292	531.53
396.671	547.57
397.05	581.92
397.429	559.55
397.808	545.99
398.186	559.1
398.565	550.06
398.944	573.11
399.323	578.3
399.701	581.24
400.08	589.83
400.458	570.85
400.837	581.24
401.215	607.46
401.594	615.14
401.972	594.35
402.351	602.71
402.729	610.62
403.107	617.4
403.486	604.07
403.864	632.99
404.242	609.26
404.62	659.66
404.999	645.87
405.377	640.45
405.755	651.07
406.133	642.26
406.511	666.66
406.889	655.59
407.267	705.31
407.645	701.46
408.023	689.04
408.401	715.7
408.779	705.53
409.156	742.37
409.534	738.75
409.912	754.12
410.29	760.45
410.667	783.72
411.045	783.04
411.422	784.85
411.8	794.34
412.178	791.86
412.555	832.31
412.933	842.25
413.31	863.27
413.687	871.63
414.065	885.19
414.442	896.49
414.819	914.57
415.197	923.61
415.574	949.14
415.951	942.59
416.328	932.64
416.705	959.31
417.082	968.35
417.46	983.72
417.837	983.27
418.214	999.76
418.591	1005.86
418.967	1001.57
419.344	1019.42
419.721	1024.39
420.098	1025.07
420.475	1052.64
420.852	1051.96
421.228	1097.61
421.605	1094
421.982	1079.53
422.358	1114.79
422.735	1079.76
423.111	1105.3
423.488	1119.31
423.864	1143.03
424.241	1177.61
424.617	1157.27
424.994	1172.86
425.37	1188.01
425.746	1185.29
426.123	1216.03
426.499	1210.38
426.875	1256.25
427.251	1252.41
427.627	1290.83
428.003	1286.08
428.379	1293.77
428.756	1312.07
429.132	1358.85
429.507	1344.61
429.883	1347.32
430.259	1371.96
430.635	1390.94
431.011	1385.29
431.387	1465.51
431.763	1427.55
432.138	1464.16
432.514	1487.66
432.89	1478.17
433.265	1517.04
433.641	1540.54
434.016	1532.4
434.392	1598.62
434.767	1637.03
435.143	1591.16
435.518	1636.13
435.894	1640.87
436.269	1638.16
436.644	1684.94
437.02	1711.83
437.395	1710.93
437.77	1729.23
438.145	1733.98
438.52	1788.67
438.895	1785.28
439.271	1773.75
439.646	1801.77
440.021	1844.71
440.395	1844.94
440.77	1829.8
441.145	1856.01
441.52	1894.88
441.895	1886.29
442.27	1907.08
442.645	1888.33
443.019	1924.48
443.394	1963.13
443.769	1940.08
444.143	1948.89
444.518	1987.98
444.892	1970.36
445.267	1966.74
445.641	2007.42
446.016	2016.46
446.39	2030.47
446.764	2054.88
447.139	2063.46
447.513	2064.37
447.887	2104.59
448.262	2068.21
448.636	2097.13
449.01	2138.04
449.384	2137.59
449.758	2162.22
450.132	2167.41
450.506	2184.14
450.88	2200.18
451.254	2184.36
451.628	2239.73
452.002	2258.03
452.376	2277.24
452.75	2315.21
453.123	2321.54
453.497	2399.5
453.871	2393.4
454.244	2430.91
454.618	2428.65
454.992	2448.99
455.365	2489.21
455.739	2535.77
456.112	2538.93
456.486	2548.2
456.859	2605.6
457.232	2657.35
457.606	2669.77
457.979	2689.89
458.352	2747.74
458.725	2771.69
459.099	2775.31
459.472	2822.09
459.845	2887.85
460.218	2893.27
460.591	2890.79
460.964	2944.8
461.337	2974.85
461.71	3059.82
462.083	3069.09
462.456	3074.51
462.829	3074.74
463.201	3166.71
463.574	3172.59
463.947	3220.95
464.32	3211.46
464.692	3258.23
465.065	3320.15
465.438	3380.94
465.81	3385.91
466.183	3404.67
466.555	3410.77
466.928	3495.52
467.3	3471.79
467.672	3539.81
468.045	3600.6
468.417	3620.48
468.789	3656.19
469.161	3699.13
469.534	3709.75
469.906	3827.48
470.278	3850.08
470.65	3892.34
471.022	3935.05
471.394	3993.81
471.766	4005.56
472.138	4084.43
472.51	4154.26
472.882	4239.9
473.253	4263.4
473.625	4293.01
473.997	4363.29
474.369	4430.86
474.74	4481.93
475.112	4535.04
475.484	4616.84
475.855	4689.16
476.227	4729.83
476.598	4834.01
476.97	4909.26
477.341	4984.97
477.713	5073.78
478.084	5079.88
478.455	5204.62
478.827	5263.83
479.198	5412.08
479.569	5440.1
479.94	5542.92
480.311	5636.93
480.682	5781.33
481.053	5889.12
481.424	5974.32
481.795	6028.56
482.166	6151.94
482.537	6168.89
482.908	6372.95
483.279	6500.86
483.65	6568.43
484.021	6694.98
484.391	6755.32
484.762	6781.76
485.133	6953.28
485.503	6981.07
485.874	7234.63
486.244	7260.39
486.615	7456.77
486.985	7558.23
487.356	7698.57
487.726	7678.23
488.097	7906.7
488.467	7962.29
488.837	8200.7
489.207	8264.88
489.578	8414.26
489.948	8597.98
490.318	8663.74
490.688	8685.89
491.058	8861.93
491.428	9047.69
491.798	9117.74
492.168	9347.11
492.538	9384.4
492.908	9561.57
493.278	9739.42
493.648	9759.31
494.017	9905.52
494.387	10097.83
494.757	10124.49
495.126	10300.53
495.496	10402
495.866	10505.27
496.235	10651.71
496.605	10754.53
496.974	10831.59
497.344	11026.16
497.713	11107.74
498.082	11187.29
498.452	11324.01
498.821	11479.71
499.19	11539.37
499.559	11677
499.928	11780.95
500.298	11892.13
500.667	12051
501.036	12101.16
501.405	12160.37
501.774	12293.48
502.143	12451.89
502.512	12510.19
502.88	12699.57
503.249	12815.27
503.618	12871.31
503.987	12925.78
504.356	13132.1
504.724	13250.51
505.093	13283.96
505.462	13407.57
505.83	13552.65
506.199	13617.06
506.567	13842.59
506.936	13838.07
507.304	14056.37
507.672	14209.58
508.041	14227.89
508.409	14372.07
508.777	14485.96
509.145	14659.06
509.514	14706.97
509.882	14809.12
510.25	14946.29
510.618	14992.39
510.986	15102.44
511.354	15198.94
511.722	15417.69
512.09	15580.62
512.458	15579.04
512.826	15776.1
513.193	15885.25
513.561	15889.77
513.929	15928.63
514.297	16153.04
514.664	16328.17
515.032	16335.4
515.4	16544.89
515.767	16664.21
516.135	16673.47
516.502	16742.17
516.869	17021.94
517.237	17070.07
517.604	17127.93
517.972	17398.2
518.339	17489.27
518.706	17522.72
519.073	17654.92
519.44	17821.24
519.808	17928.81
520.175	17998.41
520.542	18324.28
520.909	18297.61
521.276	18495.12
521.643	18763.36
522.009	18722.69
522.376	18954.54
522.743	19077.25
523.11	19286.96
523.477	19474.53
523.843	19652.38
524.21	19704.13
524.577	19850.34
524.943	19992.26
525.31	20135.53
525.676	20510.66
526.043	20576.2
526.409	20654.84
526.776	20896.19
527.142	21062.74
527.508	21141.61
527.874	21374.37
528.241	21504.31
528.607	21579.33
528.973	21924.18
529.339	21871.3
529.705	22144.06
530.071	22381.8
530.437	22385.41
530.803	22575.69
531.169	22671.96
531.535	22744.27
531.901	22835.12
532.267	23096.13
532.632	23269.01
532.998	23309.46
533.364	23480.53
533.73	23481.2
534.095	23770.91
534.461	23835.09
534.826	23871.25
535.192	24085.71
535.557	24251.81
535.923	24211.58
536.288	24388.3
536.653	24468.98
537.019	24534.06
537.384	24598.01
537.749	24806.14
538.114	24789.87
538.479	24873.03
538.845	25033.25
539.21	25016.53
539.575	25174.72
539.94	25167.04
540.305	25332.68
540.67	25337.43
541.034	25489.97
541.399	25536.52
541.764	25687.93
542.129	25820.13
542.494	25787.36
542.858	25886.11
543.223	25885.89
543.587	26160
543.952	25997.3
544.316	26091.08
544.681	26183.28
545.045	26402.03
545.41	26448.81
545.774	26551.41
546.138	26469.15
546.503	26639.31
546.867	26710.27
547.231	26868.01
547.595	26864.84
547.959	27016.03
548.324	27050.15
548.688	27065.29
549.052	27179.86
549.416	27168.79
549.779	27131.5
550.143	27376.02
550.507	27507.77
550.871	27545.96
551.235	27508.9
551.599	27867.76
551.962	27958.83
552.326	27919.51
552.689	27975.32
553.053	27900.75
553.417	28173.74
553.78	28434.07
554.143	28406.95
554.507	28429.55
554.87	28633.84
555.234	28768.07
555.597	28645.36
555.96	28830.44
556.323	28974.85
556.686	29008.97
557.05	29233.6
557.413	29305.91
557.776	29341.16
558.139	29611.21
558.502	29668.16
558.865	29609.41
559.228	29850.3
559.59	29944.54
559.953	30066.12
560.316	30422.72
560.679	30356.05
561.041	30523.96
561.404	30615.25
561.767	30751.97
562.129	30748.81
562.492	31116.71
562.854	31098.18
563.217	31269.93
563.579	31338.85
563.941	31507.21
564.304	31576.13
564.666	31960.3
565.028	32005.73
565.39	31965.73
565.753	32321.2
566.115	32309.67
566.477	32452.49
566.839	32542.44
567.201	32942.65
567.563	32822.65
567.925	33157.11
568.287	33174.28
568.648	33359.14
569.01	33565.91
569.372	33735.85
569.734	33766.13
570.095	34095.84
570.457	34203.41
570.819	34367.7
571.18	34285.44
571.542	34640.46
571.903	34733.79
572.265	35155.25
572.626	35134.23
572.987	35290.61
573.349	35430.72
573.71	35573.32
574.071	35763.14
574.432	36004.72
574.794	36106.64
575.155	36261.21
575.516	36355.44
575.877	36665.49
576.238	36712.72
576.599	37002.21
576.96	37086.04
577.32	37246.04
577.681	37389.77
578.042	37597.22
578.403	37735.52
578.763	37880.37
579.124	38008.96
579.485	38456.63
579.845	38565.1
580.206	38627.25
580.566	38750.18
580.927	38955.15
581.287	39163.28
581.648	39390.16
582.008	39664.06
582.368	39750.61
582.728	40060.66
583.089	40132.97
583.449	40279.86
583.809	40487.99
584.169	40802.33
584.529	40881.88
584.889	41377.91
585.249	41301.75
585.609	41280.74
585.969	41931.79
586.329	41932.7
586.688	42291.78
587.048	42386.47
587.408	42568.39
587.768	42813.13
588.127	43179.67
588.487	43301.93
588.846	43946.2
589.206	43731.07
589.565	44030.27
589.925	44621.21
590.284	44810.14
590.643	44895.1
591.003	45114.31
591.362	45745.93
591.721	45850.11
592.08	46050.1
592.44	46436.53
592.799	46606.47
593.158	46674.72
593.517	47014.82
593.876	47321.26
594.235	47570.06
594.593	47789.72
594.952	48063.61
595.311	48284.39
595.67	48507.21
596.029	49015.9
596.387	49314.65
596.746	49443.91
597.104	49510.8
597.463	49713.96
597.822	50146.94
598.18	50153.27
598.538	50388.29
598.897	50823.76
599.255	50726.82
599.613	51339
599.972	51210.87
600.33	51629.62
600.688	51650.63
601.046	51802.27
601.404	52271.18
601.762	52284.74
602.12	52538.07
602.478	52789.13
602.836	52989.81
603.194	52939.64
603.552	53179.63
603.91	53299.18
604.268	53511.83
604.625	53652.39
604.983	53899.84
605.341	53855.77
605.698	54235.88
606.056	54464.12
606.413	54424.12
606.771	54780.49
607.128	54864.33
607.485	54892.13
607.843	54994.27
608.2	55249.63
608.557	55419.57
608.914	55449.86
609.272	55724.65
609.629	55867.7
609.986	55979.79
610.343	56021.82
610.7	56337.29
611.057	56348.81
611.414	56359.44
611.771	56546.32
612.127	56687.56
612.484	56779.76
612.841	56898.63
613.198	56913.55
613.554	56922.13
613.911	57156.93
614.267	57250.94
614.624	57300.88
614.98	57437.6
615.337	57591.72
615.693	57632.17
616.05	57760.76
616.406	57894.76
616.762	57831.04
617.118	57944.93
617.475	58004.36
617.831	58180.63
618.187	58233.06
618.543	58306.96
618.899	58513.28
619.255	58466.05
619.611	58480.74
619.967	58680.96
620.323	58770.67
620.678	58661.97
621.034	58627.85
621.39	58754.4
621.746	58802.99
622.101	59111.68
622.457	58909.43
622.812	59075.3
623.168	59127.27
623.523	59162.53
623.879	59280.04
624.234	59145.58
624.589	59252.92
624.945	59298.79
625.3	59344.44
625.655	59358.91
626.01	59394.16
626.365	59400.94
626.72	59391.67
627.075	59398.23
627.43	59452.46
627.785	59481.16
628.14	59564.78
628.495	59548.5
628.85	59559.13
629.205	59532.23
629.559	59671.44
629.914	59504.44
630.269	59643.42
630.623	59498.11
630.978	59428.96
631.332	59623.08
631.687	59626.24
632.041	59601.61
632.396	59479.35
632.75	59506.7
633.104	59582.4
633.459	59467.38
633.813	59536.3
634.167	59460.82
634.521	59533.82
634.875	59510.99
635.229	59439.58
635.583	59278.23
635.937	59319.13
636.291	59280.72
636.645	59268.06
636.999	59263.77
637.352	59336.53
637.706	59219.93
638.06	59308.06
638.413	59266.7
638.767	59165.69
639.121	59205.92
639.474	59096.77
639.828	59180.6
640.181	59119.59
640.534	59207.95
640.888	59061.06
641.241	58959.82
641.594	59033.49
641.947	59055.41
642.301	58888.64
642.654	59074.39
643.007	58921.18
643.36	58978.35
643.713	58885.25
644.066	59012.7
644.419	58793.95
644.771	58607.74
645.124	58345.6
645.477	58357.35
645.83	58212.04
646.182	58172.5
646.535	58065.61
646.888	58177.69
647.24	58149.67
647.593	58222.89
647.945	58117.58
648.298	58080.97
648.65	57893.18
649.002	57864.26
649.355	57894.31
649.707	57835.33
650.059	57862.45
650.411	58191.48
650.763	58180.41
651.115	58530.45
651.467	58383.11
651.819	58434.64
652.171	58362.55
652.523	58209.78
652.875	58393.73
653.227	58247.75
653.578	58401.64
653.93	58344.47
654.282	58200.07
654.633	58217.92
654.985	58181.08
655.337	58160.52
655.688	58148.77
656.039	58237.8
656.391	58034.65
656.742	58038.71
657.094	58055.66
657.445	58181.76
657.796	58099.96
658.147	58036.45
658.498	58098.37
658.849	58132.95
659.2	57939.51
659.551	57939.28
659.902	58101.54
660.253	57987.64
660.604	58009.79
660.955	57833.3
661.306	58023.8
661.656	57872.16
662.007	57885.95
662.358	57943.8
662.708	57888.21
663.059	57849.79
663.409	57733.41
663.76	57799.17
664.11	57821.77
664.461	57951.94
664.811	57874.88
665.161	57851.15
665.511	57794.2
665.862	57748.1
666.212	57834.43
666.562	57835.1
666.912	57745.39
667.262	57616.8
667.612	57722.34
667.962	57706.52
668.312	57659.29
668.662	57810.47
669.011	57768.21
669.361	57723.24
669.711	57749.46
670.06	57582.91
670.41	57663.13
670.76	57585.17
671.109	57706.07
671.459	57636.24
671.808	57574.32
672.157	57622.45
672.507	57529.8
672.856	57512.85
673.205	57644.37
673.554	57605.28
673.904	57514.66
674.253	57665.39
674.602	57567.09
674.951	57218.4
675.3	57097.27
675.649	57495.23
675.998	57519.63
676.346	57549.46
676.695	57584.04
677.044	57378.84
677.393	57491.61
677.741	57473.98
678.09	57422.01
678.438	57396.47
678.787	57490.48
679.135	57426.3
679.484	57338.39
679.832	57416.13
680.181	57288.9
680.529	57411.16
680.877	57212.97
681.225	57254.78
681.573	57415.23
681.922	57245.97
682.27	57174.56
682.618	57186.76
682.966	57089.81
683.314	57168.91
683.661	57158.74
684.009	57021.34
684.357	56994.22
684.705	56942.25
685.053	56982.24
685.4	56906.99
685.748	56848.24
686.095	56844.17
686.443	56703.16
686.79	56745.19
687.138	56854.11
687.485	56782.7
687.832	56686.21
688.18	56617.51
688.527	56608.24
688.874	56533.22
689.221	56528.47
689.568	56426.78
689.915	56342.94
690.262	56442.82
690.609	56376.38
690.956	56280.57
691.303	56245.54
691.65	56171.64
691.997	56021.59
692.344	56037.18
692.69	56029.28
693.037	56066.11
693.383	55820.69
693.73	55910.86
694.077	55736.18
694.423	55756.97
694.769	55567.59
695.116	55652.56
695.462	55562.85
695.808	55425
696.155	55521.04
696.501	55250.54
696.847	55361.04
697.193	55162.86
697.539	55203.31
697.885	55001.96
698.231	54959.92
698.577	54959.25
698.923	54978
699.269	54633.38
699.614	54716.09
699.96	54637.45
700.306	54695.75
700.651	54480.84
700.997	54473.38
701.342	54390.22
701.688	54383.44
702.033	54185.48
702.379	54281.07
702.724	54087.41
703.069	54068.65
703.415	53814.19
703.76	53902.55
704.105	53845.6
704.45	53732.84
704.795	53689
705.14	53502.34
705.485	53596.34
705.83	53369.68
706.175	53450.59
706.52	53336.24
706.865	53274.55
707.209	53185.73
707.554	53157.49
707.899	53157.71
708.243	52997.04
708.588	52995
708.932	52789.81
709.277	52896.25
709.621	52669.59
709.966	52433.89
710.31	52570.61
710.654	52312.31
710.998	52445.41
711.342	52399.31
711.687	52323.61
712.031	52262.37
712.375	52105.76
712.719	52069.61
713.063	51960.46
713.407	52115.25
713.75	52012.66
714.094	51900.57
714.438	51783.96
714.782	51728.15
715.125	51635.27
715.469	51697.64
715.812	51484.76
716.156	51434.14
716.499	51409.96
716.843	51389.17
717.186	51199.35
717.53	51430.07
717.873	51267.82
718.216	51219.46
718.559	51135.84
718.902	50853.59
719.246	50937.21
719.589	50827.38
719.932	50790.54
720.275	50826.02
720.617	50826.02
720.96	50537.22
721.303	50610.43
721.646	50677.55
721.989	50409.76
722.331	50440.72
722.674	50352.36
723.016	50411.57
723.359	50295.64
723.701	50222.65
724.044	50207.51
724.386	50039.83
724.729	50198.02
725.071	49957.57
725.413	49952.6
725.755	49899.27
726.097	49803.68
726.439	49714.87
726.782	49589.67
727.124	49756.45
727.465	49707.63
727.807	49450.69
728.149	49572.27
728.491	49417.02
728.833	49410.47
729.175	49491.14
729.516	49200.75
729.858	49266.52
730.199	49349.68
730.541	49194.43
730.882	49158.27
731.224	49124.82
731.565	48927.09
731.906	48963.02
732.248	48983.13
732.589	48861.33
732.93	48825.17
733.271	48817.49
733.612	48713.31
733.953	48738.85
734.294	48633.54
734.635	48511.73
734.976	48643.93
735.317	48542.47
735.658	48467.44
735.999	48376.37
736.339	48298.18
736.68	48353.54
737.021	48345.41
737.361	48202.59
737.702	48473.54
738.042	48228.58
738.383	48138.86
738.723	48151.52
739.063	48110.39
739.404	48242.59
739.744	48093.66
740.084	48117.17
740.424	48018.86
740.764	47826.1
741.104	48087.34
741.444	47662.72
741.784	47660.91
742.124	47798.31
742.464	47598.08
742.804	47691.87
743.143	47543.4
743.483	47670.4
743.823	47448.71
744.162	47424.08
744.502	47518.76
744.841	47191.99
745.181	47454.59
745.52	47246.68
745.86	47283.52
746.199	47163.97
746.538	47191.99
746.877	47235.38
747.216	47068.83
747.556	47039.46
747.895	47020.92
748.234	46915.16
748.573	46900.7
748.911	46750.65
749.25	46733.25
749.589	46604.89
749.928	46636.75
750.267	46682.63
750.605	46600.6
750.944	46413.48
751.283	46450.09
751.621	46451
751.96	46188.18
752.298	46148.63
752.636	46238.8
752.975	46079.93
753.313	45899.82
753.651	46087.16
753.989	45780.28
754.327	45789.54
754.666	45542.77
755.004	45742.99
755.342	45668.87
755.679	45638.81
756.017	45438.14
756.355	45444.02
756.693	45275.21
757.031	45329.9
757.368	45087.42
757.706	44965.84
758.044	44823.69
758.381	44775.11
758.719	44793.86
759.056	44665.73
759.394	44459.41
759.731	44187.55
760.068	44139.87
760.405	44255.12
760.743	44062.58
761.08	44040.44
761.417	43813.78
761.754	43684.06
762.091	43644.52
762.428	43372.88
762.765	43345.99
763.102	43294.24
763.438	43264.87
763.775	42812.9
764.112	42930.41
764.449	42887.47
764.785	42705.11
765.122	42464.89
765.458	42395.96
765.795	42464.21
766.131	42241.62
766.467	42147.61
766.804	41979.48
767.14	41771.12
767.476	41556.44
767.812	41497
768.148	41558.24
768.485	41350.11
768.821	41050.23
769.157	40995.09
769.492	40874.65
769.828	40882.55
770.164	40480.08
770.5	40325.51
770.836	40391.95
771.171	40144.04
771.507	39974.33
771.842	39721.68
772.178	39772.53
772.513	39617.73
772.849	39418.19
773.184	39525.53
773.519	39240.79
773.855	39018.2
774.19	39017.29
774.525	38754.93
774.86	38726
775.195	38591.99
775.53	38420.02
775.865	38298.67
776.2	38081.27
776.535	37815.29
776.87	37824.78
777.205	37598.8
777.539	37538.01
777.874	37513.38
778.209	37238.36
778.543	37251.01
778.878	36947.97
779.212	37088.53
779.547	36590.01
779.881	36674.08
780.215	36389.11
780.55	36397.25
780.884	36167.42
781.218	36019.18
781.552	36278.83
781.886	35874.55
782.22	35710.26
782.554	35537.38
782.888	35204.74
783.222	35172.42
783.556	35107.11
783.889	35005.42
784.223	34835.26
784.557	34795.48
784.89	34753.9
785.224	34522.72
785.557	34425.32
785.891	34313.01
786.224	34190.08
786.558	34163.18
786.891	33952.12
787.224	33801.84
787.557	33625.34
787.891	33614.95
788.224	33438.46
788.557	33475.74
788.89	33368.4
789.223	33236.88
789.556	32959.15
789.888	32848.42
790.221	32726.61
790.554	32536.33
790.887	32588.76
791.219	32379.95
791.552	32362.78
791.884	32244.14
792.217	32096.35
792.549	32010.92
792.882	31723.7
793.214	31614.55
793.546	31639.63
793.879	31546.98
794.211	31266.99
794.543	31490.94
794.875	31281.23
795.207	31137.95
795.539	31118.97
795.871	31063.38
796.203	30892.76
796.535	30736.16
796.867	30742.03
797.198	30424.07
797.53	30422.94
797.862	30264.98
798.193	30282.61
798.525	30122.84
798.856	30246.22
799.188	29814.82
799.519	29780.93
799.85	29658.44
800.182	29631.33
800.513	29701.61
800.844	29136.42
801.175	29407.38
801.506	29339.13
801.837	29252.8
802.168	29196.76
802.499	29225.01
802.83	29001.06
803.161	28802.19
803.491	28791.12
803.822	28935.07
804.153	28508.42
804.483	28404.01
804.814	28243.11
805.145	28414.63
805.475	28314.52
805.805	28263
806.136	28303.45
806.466	28147.3
806.796	28006.06
807.126	27758.38
807.457	27786.18
807.787	27820.75
808.117	27643.36
808.447	27553.64
808.777	27711.15
809.107	27491.27
809.436	27327.43
809.766	27365.17
810.096	27349.13
810.426	27148
810.755	27264.61
811.085	27062.13
811.414	27036.37
811.744	26931.74
812.073	26913.43
812.403	26760.89
812.732	26600.67
813.061	26818.52
813.39	26589.37
813.719	26589.82
814.049	26598.64
814.378	26428.92
814.707	26276.16
815.036	26314.12
815.365	26170.17
815.693	26049.5
816.022	26003.85
816.351	25856.06
816.68	25816.28
817.008	25938.32
817.337	25612.9
817.665	25718.89
817.994	25641.83
818.322	25523.64
818.651	25454.49
818.979	25485.45
819.307	25522.73
819.636	25403.64
819.964	25268.5
820.292	25303.98
820.62	25315.05
820.948	25269.63
821.276	25386.92
821.604	25183.31
821.932	25402.06
822.259	25320.93
822.587	25347.6
822.915	25185.79
823.243	25183.98
823.57	25128.17
823.898	25371.78
824.225	25196.87
824.553	25242.51
824.88	25274.38
825.207	25297.2
825.535	25174.04
825.862	25289.07
826.189	25183.31
826.516	25351.89
826.843	25374.71
827.17	25354.6
827.497	25337.43
827.824	25328.84
828.151	25337.65
828.478	25238.67
828.805	25344.88
829.131	25389.4
829.458	25281.38
829.785	25211.55
830.111	25325.45
830.438	25408.39
830.764	25202.06
831.09	25265.34
831.417	25199.35
831.743	25366.35
832.069	25178.56
832.395	25190.54
832.722	25193.48
833.048	25140.14
833.374	25223.08
833.7	25014.5
834.026	25183.53
834.351	25005.23
834.677	25092.46
835.003	25040.26
835.329	24946.7
835.654	24958.91
835.98	24739.25
836.306	24984.22
836.631	24924.1
836.956	24925.69
837.282	24955.74
837.607	24801.4
837.932	24823.54
838.258	24812.7
838.583	24772.24
838.908	24762.75
839.233	24676.2
839.558	24513.27
839.883	24540.84
840.208	24416.77
840.533	24516.66
840.858	24499.93
841.182	24515.3
841.507	24403.67
841.832	24126.84
842.156	24373.84
842.481	24332.03
842.805	24244.35
843.13	24109.89
843.454	24163.67
843.778	23976.56
844.103	23959.16
844.427	24004.13
844.751	23960.06
845.075	23879.39
845.399	23677.58
845.723	23719.62
846.047	23698.83
846.371	23586.06
846.695	23530.92
847.019	23284.15
847.343	23237.6
847.666	23146.52
847.99	23019.52
848.313	22971.39
848.637	22937.49
848.96	22798.51
849.284	22805.06
849.607	22463.6
849.931	22557.84
850.254	22400.56
850.577	22331.63
850.9	22193.33
851.223	22197.85
851.546	22016.84
851.869	21972.32
852.192	22130.51
852.515	21756.28
852.838	21714.92
853.161	21746.33
853.483	21548.83
853.806	21572.33
854.129	21492.78
854.451	21394.48
854.774	21328.72
855.096	21373.92
855.419	21107.03
855.741	21179.12
856.063	21016.18
856.385	20985.45
856.708	20940.48
857.03	20852.8
857.352	20813.25
857.674	20773.03
857.996	20654.84
858.318	20514.73
858.64	20575.29
858.961	20431.34
859.283	20388.4
859.605	20401.74
859.926	20349.31
860.248	20290.78
860.57	20185.47
860.891	20209.65
861.212	20198.13
861.534	20065.02
861.855	19983.44
862.176	20062.99
862.498	19945.93
862.819	19935.08
863.14	19932.15
863.461	19858.7
863.782	19759.27
864.103	19835.42
864.424	19738.03
864.745	19823.67
865.065	19524.25
865.386	19542.55
865.707	19585.49
866.027	19494.19
866.348	19617.58
866.668	19526.05
866.989	19404.7
867.309	19327.64
867.63	19352.27
867.95	19361.09
868.27	19176.69
868.59	19260.98
868.91	19139.85
869.23	19199.28
869.55	19133.52
869.87	19263.46
870.19	19063.47
870.51	19113.86
870.83	19038.84
871.15	18913.19
871.469	18987.31
871.789	19038.16
872.109	18995.67
872.428	18835.68
872.748	18945.73
873.067	18778.73
873.386	18811.5
873.706	18748.9
874.025	18670.03
874.344	18674.78
874.663	18714.1
874.982	18570.37
875.301	18587.32
875.62	18508.23
875.939	18495.8
876.258	18596.36
876.577	18336.48
876.896	18459.19
877.214	18446.99
877.533	18351.62
877.852	18378.06
878.17	18358.4
878.489	18437.27
878.807	18230.04
879.125	18304.62
879.444	18207.44
879.762	18100.33
880.08	18289.48
880.398	18101.69
880.716	18080.44
881.034	18032.99
881.352	18080.44
881.67	17831.64
881.988	18034.79
882.306	17847.23
882.624	17938.98
882.941	17827.57
883.259	17745.31
883.577	17821.24
883.894	17639.55
884.212	17616.27
884.529	17560.68
884.846	17513.23
885.164	17389.61
885.481	17449.5
885.798	17491.98
886.115	17444.75
886.432	17397.52
886.75	17340.8
887.067	17267.81
887.383	17242.72
887.7	17180.35
888.017	16956.86
888.334	17004.09
888.651	17062.16
888.967	17022.62
889.284	16916.41
889.6	16878.67
889.917	16787.82
890.233	16862.85
890.55	16790.99
890.866	16712.57
891.182	16669.41
891.498	16645
891.815	16532.46
892.131	16532.01
892.447	16436.87
892.763	16573.82
893.079	16420.6
893.395	16421.96
893.71	16291.56
894.026	16307.83
894.342	16324.1
894.657	16086.6
894.973	16035.07
895.289	16133.6
895.604	16044.79
895.92	15942.19
896.235	15915.3
896.55	15922.53
896.865	15781.75
897.181	15782.2
897.496	15755.31
897.811	15650.22
898.126	15534.75
898.441	15611.58
898.756	15505.14
899.071	15357.58
899.386	15435.99
899.7	15303.11
900.015	15197.35
900.33	15161.42
900.644	15102.44
900.959	15122.78
901.273	14992.61
901.588	14961.43
901.902	14859.28
902.216	14860.64
902.531	14886.4
902.845	14743.13
903.159	14684.6
903.473	14660.87
903.787	14643.47
904.101	14502.68
904.415	14564.83
904.729	14517.82
905.042	14326.42
905.356	14299.98
905.67	14326.64
905.984	14261.11
906.297	14269.92
906.611	14173.88
906.924	14073.77
907.237	13986.54
907.551	13982.25
907.864	13936.6
908.177	14017.27
908.491	13849.82
908.804	13757.62
909.117	13633.78
909.43	13528.47
909.743	13579.09
910.056	13620.45
910.368	13502.71
910.681	13429.72
910.994	13324.41
911.307	13250.74
911.619	13157.86
911.932	13151.53
912.244	13105.43
912.557	13150.63
912.869	13010.29
913.181	12942.5
913.494	13020.91
913.806	12809.17
914.118	12681.49
914.43	12820.24
914.742	12748.61
915.054	12648.95
915.366	12606.01
915.678	12599.23
915.99	12586.8
916.302	12479.91
916.613	12385
916.925	12339.58
917.236	12312.68
917.548	12222.52
917.859	12212.8
918.171	12143.42
918.482	12062.97
918.794	12106.36
919.105	11991.11
919.416	11959.7
919.727	11870.44
920.038	11844.22
920.349	11720.61
920.66	11700.27
920.971	11714.96
921.282	11671.8
921.593	11557
921.903	11571.91
922.214	11508.19
922.525	11460.96
922.835	11424.8
923.146	11272.26
923.456	11276.78
923.767	11273.16
924.077	11169.21
924.387	11169.44
924.697	11113.39
925.008	11046.5
925.318	11090.12
925.628	11027.97
925.938	10964.47
926.248	10875.21
926.558	10844.7
926.867	10801.31
927.177	10739.84
927.487	10727.42
927.796	10642.67
928.106	10654.42
928.416	10591.15
928.725	10531.26
929.034	10405.39
929.344	10516.35
929.653	10407.42
929.962	10253.08
930.271	10313.42
930.581	10236.58
930.89	10202.91
931.199	10141.22
931.508	10120.88
931.817	10023.71
932.125	9984.38
932.434	9973.31
932.743	9924.27
933.051	9879.08
933.36	9880.88
933.669	9825.97
933.977	9737.16
934.286	9686.54
934.594	9654.68
934.902	9628.01
935.21	9550.95
935.519	9535.13
935.827	9567.45
936.135	9437.05
936.443	9433.66
936.751	9341.01
937.059	9317.06
937.367	9300.33
937.674	9273.67
937.982	9204.97
938.29	9197.74
938.597	9166.33
938.905	9088.36
939.213	9039.32
939.52	8978.99
939.827	9032.32
940.135	8968.82
940.442	8904.19
940.749	8852.44
941.056	8899.89
941.363	8771.08
941.67	8735.15
941.977	8749.84
942.284	8653.8
942.591	8641.37
942.898	8562.27
943.205	8590.52
943.511	8570.86
943.818	8478.44
944.125	8456.06
944.431	8379.23
944.738	8387.36
945.044	8312.79
945.35	8280.93
945.657	8239.12
945.963	8193.25
946.269	8152.57
946.575	8139.24
946.881	8088.62
947.187	8074.83
947.493	8060.59
947.799	8041.84
948.105	8007.49
948.41	7937.88
948.716	7894.27
949.022	7920.71
949.327	7857.43
949.633	7794.84
949.938	7800.71
950.244	7739.25
950.549	7652.24
950.854	7600.72
951.16	7577.44
951.465	7587.61
951.77	7521.85
952.075	7512.58
952.38	7500.61
952.685	7472.81
952.99	7372.25
953.294	7412.93
953.599	7302.42
953.904	7341.06
954.209	7232.14
954.513	7244.12
954.818	7260.16
955.122	7251.35
955.426	7173.61
955.731	7168.41
956.035	7079.83
956.339	7011.58
956.643	7077.34
956.948	6947.63
957.252	6977.46
957.556	6919.61
957.86	6874.18
958.163	6871.02
958.467	6828.31
958.771	6776.79
959.075	6787.63
959.378	6678.26
959.682	6744.7
959.985	6703.34
960.289	6722.78
960.592	6621.53
960.896	6616.11
961.199	6584.47
961.502	6575.89
961.805	6466.28
962.108	6437.58
962.411	6431.71
962.714	6432.84
963.017	6371.37
963.32	6359.62
963.623	6322.11
963.926	6317.59
964.228	6345.84
964.531	6242.11
964.833	6250.25
965.136	6184.48
965.438	6166.63
965.741	6153.07
966.043	6072.4
966.345	6076.01
966.648	6076.69
966.95	6063.58
967.252	6009.8
967.554	6000.08
967.856	5977.94
968.158	5872.63
968.46	5931.61
968.761	5915.56
969.063	5838.28
969.365	5838.73
969.666	5808.67
969.968	5738.17
970.269	5656.59
970.571	5724.38
970.872	5640.54
971.174	5615.46
971.475	5639.87
971.776	5596.03
972.077	5572.52
972.378	5568.91
972.679	5577.04
972.98	5526.2
973.281	5481.68
973.582	5476.93
973.883	5420.44
974.183	5398.29
974.484	5358.07
974.785	5310.61
975.085	5325.07
975.386	5292.3
975.686	5296.37
975.986	5289.82
976.287	5273.55
976.587	5217.5
976.887	5179.76
977.187	5234.68
977.487	5150.39
977.787	5149.03
978.087	5113.78
978.387	5085.98
978.687	5083.04
978.987	5056.83
979.286	5015.7
979.586	4997.85
979.885	4969.6
980.185	4930.05
980.484	4859.77
980.784	4907.46
981.083	4883.28
981.382	4885.08
981.682	4800.57
981.981	4791.75
982.28	4776.39
982.579	4714.24
982.878	4734.8
983.177	4723.96
983.475	4728.03
983.774	4661.36
984.073	4656.16
984.372	4635.6
984.67	4625.43
984.969	4618.2
985.267	4594.47
985.566	4553.79
985.864	4547.69
986.162	4515.6
986.461	4448.48
986.759	4484.87
987.057	4457.3
987.355	4384.98
987.653	4421.59
987.951	4367.13
988.249	4354.7
988.547	4338.43
988.844	4320.35
989.142	4290.3
989.44	4269.96
989.737	4282.61
990.035	4248.94
990.332	4188.38
990.63	4185.44
990.927	4160.36
991.224	4169.4
991.521	4148.38
991.819	4048.95
992.116	4119.23
992.413	4034.48
992.71	4059.12
993.006	4049.85
993.303	4013.69
993.6	4001.04
993.897	3999.46
994.193	3965.79
994.49	3927.59
994.787	3897.99
995.083	3872.68
995.379	3871.1
995.676	3873.36
995.972	3854.38
996.268	3807.82
996.565	3770.76
996.861	3748.62
997.157	3766.47
997.453	3748.84
997.749	3690.99
998.044	3672.01
998.34	3665.45
998.636	3682.4
998.932	3642.63
999.227	3618
999.523	3583.65
999.818	3541.39
1000.114	3570.09
1000.409	3541.16
1000.704	3507.49
1001	3485.12
1001.295	3467.95
1001.59	3461.39
1001.885	3459.58
1002.18	3435.86
1002.475	3367.61
1002.77	3375.52
1003.065	3363.77
1003.359	3327.61
1003.654	3326.03
1003.949	3352.24
1004.243	3270.44
1004.538	3261.62
1004.832	3251
1005.127	3254.39
1005.421	3194.28
1005.715	3191.57
1006.009	3180.95
1006.304	3148.18
1006.598	3137.33
1006.892	3094.4
1007.186	3069.09
1007.48	3067.28
1007.773	3066.83
1008.067	3043.32
1008.361	3015.08
1008.655	2969.2
1008.948	2992.03
1009.242	2946.6
1009.535	2945.93
1009.829	2959.03
1010.122	2911.12
1010.415	2889.43
1010.708	2862.76
1011.001	2858.24
1011.295	2835.87
1011.588	2784.57
1011.881	2797
1012.173	2776.89
1012.466	2759.26
1012.759	2769.43
1013.052	2756.33
1013.344	2743.9
1013.637	2696.21
1013.93	2693.95
1014.222	2666.84
1014.514	2651.47
1014.807	2658.02
1015.099	2635.2
1015.391	2583.45
1015.683	2576.67
1015.976	2607.4
1016.268	2541.19
1016.56	2514.75
1016.851	2504.58
1017.143	2508.2
1017.435	2472.04
1017.727	2461.42
1018.018	2462.1
1018.31	2418.48
1018.602	2413.96
1018.893	2441.76
1019.185	2394.3
1019.476	2370.12
1019.767	2317.47
1020.058	2321.08
1020.35	2319.73
1020.641	2263.01
1020.932	2280.86
1021.223	2277.92
1021.514	2278.6
1021.804	2264.81
1022.095	2193.18
1022.386	2214.19
1022.677	2180.3
1022.967	2212.61
1023.258	2173.97
1023.548	2170.58
1023.839	2121.09
1024.129	2140.07
1024.419	2101.88
1024.709	2074.08
1025	2073.86
1025.29	2043.58
1025.58	2025.72
1025.87	2021.43
1026.16	2006.97
1026.449	1998.83
1026.739	1987.31
1027.029	1973.75
1027.319	1918.83
1027.608	1941.21
1027.898	1935.33
1028.187	1911.83
1028.477	1906.86
1028.766	1874.32
1029.055	1886.29
1029.344	1862.34
1029.634	1829.34
1029.923	1825.5
1030.212	1853.52
1030.501	1787.31
1030.79	1773.3
1031.078	1776.01
1031.367	1760.87
1031.656	1781.89
1031.945	1749.8
1032.233	1753.87
1032.522	1701.89
1032.81	1699.4
1033.099	1694.43
1033.387	1691.27
1033.675	1682.91
1033.963	1631.84
1034.251	1645.85
1034.54	1625.73
1034.828	1621.89
1035.116	1595.23
1035.403	1597.26
1035.691	1590.03
1035.979	1568.79
1036.267	1597.71
1036.554	1562.91
1036.842	1534.66
1037.129	1515.91
1037.417	1515.91
1037.704	1516.81
1037.992	1491.73
1038.279	1515.68
1038.566	1472.52
1038.853	1472.52
1039.14	1472.52
