Data from 7415_FLMS001491_003.txt Node
Date: Thu Apr 19 16:29:45 BST 2018
User: hsy
Spectrometer: FLMS00149
Trigger mode: 0
Integration Time (sec): 1.000000E-2
Scans to average: 10
Electric dark correction enabled: true
Nonlinearity correction enabled: false
Boxcar width: 0
XAxis mode: Wavelengths
Number of Pixels in Spectrum: 2048
>>>>>Begin Spectral Data<<<<<
341.393	3.57
341.776	3.57
342.16	3.57
342.543	-24.67
342.927	-70.55
343.31	-60.15
343.693	-74.16
344.077	-66.26
344.46	-75.52
344.843	-41.85
345.226	-59.7
345.61	-38.46
345.993	-25.58
346.376	-2.53
346.759	3.35
347.142	14.65
347.525	70.69
347.908	49
348.291	73.4
348.674	111.37
349.057	121.76
349.44	138.26
349.823	122.21
350.206	167.86
350.588	228.2
350.971	251.25
351.354	267.75
351.737	284.7
352.119	291.02
352.502	279.72
352.884	322.89
353.267	324.92
353.65	338.48
354.032	354.98
354.414	349.55
354.797	342.1
355.179	359.27
355.562	383
355.944	401.98
356.326	392.94
356.709	374.41
357.091	387.97
357.473	406.05
357.855	396.33
358.238	407.4
358.62	397.46
359.002	393.39
359.384	402.21
359.766	387.97
360.148	382.09
360.53	381.64
360.912	375.54
361.294	375.54
361.676	374.41
362.057	393.85
362.439	363.56
362.821	393.17
363.203	366.73
363.584	377.35
363.966	368.54
364.348	400.4
364.729	389.55
365.111	384.81
365.493	351.81
365.874	373.06
366.256	368.31
366.637	393.85
367.019	369.44
367.4	358.37
367.781	364.69
368.163	378.48
368.544	377.57
368.925	374.19
369.306	365.6
369.688	380.06
370.069	376.67
370.45	359.27
370.831	394.52
371.212	372.83
371.593	366.73
371.974	383.22
372.355	388.2
372.736	375.09
373.117	386.61
373.498	379.38
373.879	384.13
374.26	375.99
374.641	358.82
375.021	373.51
375.402	364.02
375.783	400.17
376.163	395.88
376.544	407.86
376.925	392.72
377.305	406.05
377.686	408.53
378.066	401.3
378.447	409.44
378.827	416.9
379.208	412.83
379.588	409.89
379.968	409.89
380.349	406.5
380.729	413.28
381.109	401.3
381.489	418.03
381.87	433.39
382.25	425.94
382.63	425.26
383.01	427.52
383.39	446.95
383.77	449.21
384.15	439.72
384.53	438.36
384.91	441.3
385.29	453.28
385.67	459.61
386.049	466.84
386.429	465.26
386.809	469.55
387.189	465.93
387.568	468.19
387.948	461.64
388.328	458.7
388.707	494.63
389.087	492.15
389.466	501.41
389.846	479.95
390.225	511.13
390.605	492.15
390.984	500.51
391.363	477.01
391.743	494.86
392.122	524.01
392.501	508.19
392.881	534.86
393.26	540.51
393.639	526.72
394.018	551.58
394.397	535.99
394.776	522.88
395.155	551.58
395.534	554.75
395.913	546.84
396.292	544.12
396.671	579.15
397.05	550
397.429	558.59
397.808	591.13
398.186	560.39
398.565	571.47
398.944	570.34
399.323	582.99
399.701	606.5
400.08	592.71
400.458	585.03
400.837	604.46
401.215	613.27
401.594	628.19
401.972	624.8
402.351	646.04
402.729	604.46
403.107	641.3
403.486	632.03
403.864	665.7
404.242	672.26
404.62	673.84
404.999	665.93
405.377	658.25
405.755	686.72
406.133	682.43
406.511	684.91
406.889	714.52
407.267	695.31
407.645	705.25
408.023	731.24
408.401	719.49
408.779	734.85
409.156	760.16
409.534	786.83
409.912	776.43
410.29	798.35
410.667	793.16
411.045	806.72
411.422	820.28
411.8	819.15
412.178	850.56
412.555	858.24
412.933	875.41
413.31	881.29
413.687	901.4
414.065	910.67
414.442	912.02
414.819	953.83
415.197	935.07
415.574	982.98
415.951	969.2
416.328	971.01
416.705	965.81
417.082	1008.29
417.46	1025.24
417.837	1032.02
418.214	1046.48
418.591	1018.24
418.967	1044.22
419.344	1069.99
419.721	1053.04
420.098	1068.86
420.475	1078.57
420.852	1100.72
421.228	1119.93
421.605	1120.61
421.982	1124.45
422.358	1145.01
422.735	1132.81
423.111	1168.51
423.488	1187.5
423.864	1195.63
424.241	1215.07
424.617	1194.95
424.994	1203.32
425.37	1213.49
425.746	1214.16
426.123	1248.29
426.499	1261.85
426.875	1299.81
427.251	1289.19
427.627	1316.76
428.003	1333.93
428.379	1340.94
428.756	1360.15
429.132	1369.41
429.507	1407.15
429.883	1390.88
430.259	1433.59
430.635	1440.82
431.011	1460.03
431.387	1482.86
431.763	1510.2
432.138	1543.65
432.514	1519.69
432.89	1571.44
433.265	1589.29
433.641	1613.93
434.016	1639.24
434.392	1649.63
434.767	1695.96
435.143	1678.11
435.518	1711.1
435.894	1707.94
436.269	1732.34
436.644	1752.68
437.02	1742.51
437.395	1771.21
437.77	1806.92
438.145	1838.33
438.52	1810.76
438.895	1853.02
439.271	1876.74
439.646	1864.09
440.021	1890.98
440.395	1906.57
440.77	1904.54
441.145	1917.2
441.52	1985.67
441.895	1955.61
442.27	1951.32
442.645	1999.91
443.019	1969.62
443.394	2002.39
443.769	2038.1
444.143	1999
444.518	2023.63
444.892	2049.4
445.267	2099.79
445.641	2109.05
446.016	2092.78
446.39	2113.57
446.764	2131.43
447.139	2124.87
447.513	2128.04
447.887	2206.23
448.262	2203.06
448.636	2190.86
449.01	2202.39
449.384	2194.48
449.758	2260.01
450.132	2293.91
450.506	2292.33
450.88	2327.13
451.254	2311.99
451.628	2350.86
452.002	2379.56
452.376	2401.48
452.75	2418.2
453.123	2403.74
453.497	2485.54
453.871	2462.94
454.244	2534.35
454.618	2512.89
454.992	2579.32
455.365	2615.71
455.739	2628.82
456.112	2670.62
456.486	2696.16
456.859	2758.98
457.232	2787.23
457.606	2753.11
457.979	2812.77
458.352	2886.21
458.725	2898.86
459.099	2919.65
459.472	2948.81
459.845	3016.83
460.218	3014.79
460.591	3047.34
460.964	3078.97
461.337	3146.54
461.71	3163.94
462.083	3251.17
462.456	3234.9
462.829	3229.25
463.201	3301.57
463.574	3335.69
463.947	3374.78
464.32	3417.95
464.692	3403.94
465.065	3466.31
465.438	3511.5
465.81	3537.72
466.183	3567.1
466.555	3654.32
466.928	3729.58
467.3	3687.54
467.672	3689.35
468.045	3809.35
468.417	3805.96
468.789	3868.56
469.161	3893.19
469.534	3934.77
469.906	4022.68
470.278	4037.14
470.65	4072.62
471.022	4128.21
471.394	4107.87
471.766	4292.5
472.138	4247.76
472.51	4323.01
472.882	4405.94
473.253	4461.76
473.625	4489.11
473.997	4582.21
474.369	4676.67
474.74	4648.65
475.112	4778.14
475.484	4817.46
475.855	4900.17
476.227	4976.1
476.598	5080.73
476.97	5152.36
477.341	5245.92
477.713	5292.25
478.084	5356.43
478.455	5494.05
478.827	5535.86
479.198	5654.05
479.569	5683.42
479.94	5851.1
480.311	5903.98
480.682	6024.43
481.053	6138.78
481.424	6229.85
481.795	6318.44
482.166	6384.65
482.537	6549.39
482.908	6664.42
483.279	6743.74
483.65	6921.81
484.021	6967.91
484.391	7088.81
484.762	7204.29
485.133	7248.81
485.503	7347.79
485.874	7553.88
486.244	7627.78
486.615	7788.45
486.985	7888.79
487.356	8032.29
487.726	8169.91
488.097	8340.98
488.467	8369.68
488.837	8580.07
489.207	8661.88
489.578	8851.48
489.948	9014.41
490.318	9089.21
490.688	9082.43
491.058	9330.79
491.428	9479.03
491.798	9580.95
492.168	9742.53
492.538	9832.47
492.908	10069.52
493.278	10175.06
493.648	10233.59
494.017	10364.88
494.387	10537.99
494.757	10645.33
495.126	10793.12
495.496	10832.89
495.866	10964.87
496.235	11175.71
496.605	11199.21
496.974	11391.75
497.344	11492.76
497.713	11606.66
498.082	11712.87
498.452	11834.67
498.821	12047.32
499.19	12037.83
499.559	12231.5
499.928	12296.36
500.298	12396.69
500.667	12519.63
501.036	12630.81
501.405	12730.24
501.774	12844.82
502.143	13037.35
502.512	13125.71
502.88	13198.93
503.249	13198.25
503.618	13442.77
503.987	13524.8
504.356	13610.9
504.724	13709.88
505.093	13866.71
505.462	13942.64
505.83	14058.8
506.199	14175.86
506.567	14363.42
506.936	14449.07
507.304	14586.47
507.672	14735.16
508.041	14774.48
508.409	14893.35
508.777	15042.73
509.145	15205.66
509.514	15176.73
509.882	15301.25
510.25	15442.72
510.618	15561.36
510.986	15621.24
511.354	15776.04
511.722	15966.09
512.09	16082.92
512.458	16046.32
512.826	16219.87
513.193	16330.38
513.561	16468.45
513.929	16586.41
514.297	16769.46
514.664	16849.91
515.032	16912.06
515.4	17148.89
515.767	17180.97
516.135	17357.92
516.502	17235.44
516.869	17557.91
517.237	17642.66
517.604	17585.26
517.972	17967.17
518.339	17997.68
518.706	18231.12
519.073	18239.25
519.44	18384.11
519.808	18615.51
520.175	18594.27
520.542	18898.22
520.909	18969.4
521.276	19008.72
521.643	19279.68
522.009	19349.73
522.376	19499.56
522.743	19638.99
523.11	19862.03
523.477	20042.37
523.843	20040.56
524.21	20232.65
524.577	20471.74
524.943	20598.96
525.31	20751.28
525.676	21093.41
526.043	21100.87
526.409	21325.05
526.776	21526.4
527.142	21630.8
527.508	21807.07
527.874	22038.25
528.241	22135.42
528.607	22210.9
528.973	22515.75
529.339	22447.05
529.705	22750.32
530.071	23019.92
530.437	23062.63
530.803	23293.13
531.169	23392.34
531.535	23402.96
531.901	23578.09
532.267	23754.59
532.632	23951.64
532.998	23981.7
533.364	24194.58
533.73	24190.51
534.095	24522.7
534.461	24588.24
534.826	24666.65
535.192	24788.46
535.557	24985.06
535.923	24976.48
536.288	25165.4
536.653	25197.04
537.019	25199.3
537.384	25458.72
537.749	25467.31
538.114	25489
538.479	25607.65
538.845	25629.34
539.21	25687.19
539.575	25848.54
539.94	25946.39
540.305	26101.42
540.67	26202.88
541.034	26167.18
541.399	26331.02
541.764	26392.03
542.129	26517
542.494	26551.35
542.858	26736.88
543.223	26649.43
543.587	26826.14
543.952	26794.73
544.316	27005.12
544.681	26961.28
545.045	27224.78
545.41	27247.83
545.774	27216.64
546.138	27213.93
546.503	27404.89
546.867	27437.43
547.231	27704.09
547.595	27720.13
547.959	27731.21
548.324	27845.1
548.688	27796.51
549.052	28107.69
549.416	27913.12
549.779	28142.49
550.143	28233.57
550.507	28414.13
550.871	28459.55
551.235	28361.92
551.599	28636.27
551.962	28637.17
552.326	28878.97
552.689	28830.16
553.053	28585.87
553.417	28765.08
553.78	29121.23
554.143	29110.38
554.507	29315.8
554.87	29353.31
555.234	29655.68
555.597	29440.54
555.96	29573.64
556.323	29786.97
556.686	29833.07
557.05	30089.79
557.413	29980.19
557.776	30139.28
558.139	30371.59
558.502	30344.02
558.865	30438.48
559.228	30732.93
559.59	30754.86
559.953	30753.73
560.316	31181.28
560.679	31115.3
561.041	31293.6
561.404	31525.68
561.767	31748.95
562.129	31608.17
562.492	31995.05
562.854	31910.08
563.217	31929.51
563.579	32091.54
563.941	32352.1
564.304	32452.44
564.666	32652.66
565.028	32732.43
565.39	32941.46
565.753	32989.82
566.115	33160.22
566.477	33537.83
566.839	33543.71
567.201	33840.88
567.563	33889.01
567.925	34118.38
568.287	34007.43
568.648	34258.49
569.01	34420.75
569.372	34878.81
569.734	34606.28
570.095	35044.69
570.457	35406.94
570.819	35371.68
571.18	35300.95
571.542	35683.54
571.903	35816.19
572.265	35884.44
572.626	36228.61
572.987	36229.06
573.349	36587.7
573.71	36798.31
574.071	36878.99
574.432	37013.22
574.794	37338.18
575.155	37348.35
575.516	37586.99
575.877	37660.44
576.238	37784.27
576.599	38058.17
576.96	38212.06
577.32	38413.18
577.681	38616.34
578.042	38866.28
578.403	38905.15
578.763	39053.39
579.124	39185.14
579.485	39516.43
579.845	39821.28
580.206	39817.89
580.566	39926.37
580.927	40250.2
581.287	40428.05
581.648	40606.8
582.008	40772.9
582.368	41007.69
582.728	41114.81
583.089	41270.74
583.449	41619.65
583.809	41805.19
584.169	42047.21
584.529	42170.15
584.889	42682.23
585.249	42637.03
585.609	42723.58
585.969	43148.65
586.329	43190.23
586.688	43641.07
587.048	43849.65
587.408	44114.96
587.768	44322.63
588.127	44461.84
588.487	44703.19
588.846	45266.79
589.206	45220.24
589.565	45456.84
589.925	46007.79
590.284	46169.14
590.643	46420.66
591.003	46749.01
591.362	47289.34
591.721	47411.14
592.08	47675.77
592.44	47975.42
592.799	48009.09
593.158	48376.76
593.517	48583.54
593.876	48803.42
594.235	49023.08
594.593	49277.08
594.952	49576.28
595.311	49715.49
595.67	50044.97
596.029	50435.24
596.387	50700.55
596.746	50918.62
597.104	51000.42
597.463	51156.13
597.822	51575.55
598.18	51613.52
598.538	51795.66
598.897	52178.7
599.255	52116.55
599.613	52595.18
599.972	52647.61
600.33	52889.64
600.688	53000.82
601.046	53241.27
601.404	53650.98
601.762	53767.13
602.12	53899.33
602.478	54111.08
602.836	54237.85
603.194	54227.91
603.552	54491.41
603.91	54516.04
604.268	54762.81
604.625	54824.5
604.983	55202.57
605.341	55123.25
605.698	55352.17
606.056	55682.56
606.413	55650.7
606.771	56006.17
607.128	56004.59
607.485	56083.68
607.843	56165.71
608.2	56332.04
608.557	56608.19
608.914	56640.28
609.272	56851.8
609.629	56984.67
609.986	57139.02
610.343	57185.12
610.7	57450.2
611.057	57432.35
611.414	57474.15
611.771	57749.4
612.127	57814.93
612.484	57908.72
612.841	58091.31
613.198	58048.6
613.554	58085.66
613.911	58340.8
614.267	58356.62
614.624	58419.89
614.98	58557.06
615.337	58752.09
615.693	58701.01
616.05	58825.08
616.406	58983.27
616.762	58973.55
617.118	59113.66
617.475	59046.77
617.831	59265.29
618.187	59333.99
618.543	59401.56
618.899	59535.79
619.255	59572.18
619.611	59523.14
619.967	59769.69
620.323	59827.54
620.678	59756.13
621.034	59757.71
621.39	59790.02
621.746	59885.16
622.101	60108.66
622.457	59962.22
622.812	60082.45
623.168	60145.49
623.523	60148.66
623.879	60267.07
624.234	60129.9
624.589	60319.5
624.945	60311.14
625.3	60381.19
625.655	60387.52
626.01	60460.74
626.365	60499.38
626.72	60456.22
627.075	60434.3
627.43	60482.66
627.785	60515.43
628.14	60585.71
628.495	60590.45
628.85	60605.37
629.205	60524.24
629.559	60707.06
629.914	60593.62
630.269	60613.28
630.623	60576.9
630.978	60531.7
631.332	60740.51
631.687	60674.07
632.041	60561.08
632.396	60594.75
632.75	60556.11
633.104	60615.09
633.459	60501.87
633.813	60581.19
634.167	60528.08
634.521	60560.85
634.875	60537.12
635.229	60489.44
635.583	60456.45
635.937	60415.32
636.291	60464.81
636.645	60451.02
636.999	60314.53
637.352	60459.61
637.706	60305.04
638.06	60425.71
638.413	60340.29
638.767	60292.84
639.121	60326.06
639.474	60225.04
639.828	60244.93
640.181	60134.87
640.534	60319.95
640.888	60151.6
641.241	60056.23
641.594	60104.14
641.947	60161.09
642.301	60096
642.654	60140.75
643.007	60061.66
643.36	60085.38
643.713	59991.15
644.066	60103.69
644.419	59998.61
644.771	59734.21
645.124	59493.99
645.477	59475.23
645.83	59334.22
646.182	59315.69
646.535	59274.11
646.888	59320.43
647.24	59211.28
647.593	59310.26
647.945	59236.14
648.298	59158.85
648.65	59076.37
649.002	59005.64
649.355	58961.12
649.707	58931.06
650.059	58931.06
650.411	59223.49
650.763	59323.37
651.115	59615.11
651.467	59560.65
651.819	59535.34
652.171	59450.37
652.523	59421.22
652.875	59407.44
653.227	59282.69
653.578	59490.14
653.93	59342.13
654.282	59245.18
654.633	59248.57
654.985	59283.6
655.337	59373.09
655.688	59297.38
656.039	59317.04
656.391	59080.89
656.742	59213.99
657.094	59190.27
657.445	59175.8
657.796	59194.56
658.147	59095.8
658.498	59230.72
658.849	59192.53
659.2	59076.6
659.551	58994.79
659.902	59225.52
660.253	58999.54
660.604	59137.16
660.955	58995.69
661.306	59133.32
661.656	58989.59
662.007	59020.1
662.358	58933.55
662.708	59041.12
663.059	58974.9
663.409	58850.16
663.76	58923.83
664.11	58906.43
664.461	58964.28
664.811	59012.19
665.161	58924.28
665.511	58917.96
665.862	58797.73
666.212	58929.03
666.562	58942.59
666.912	58902.36
667.262	58828.02
667.612	58796.83
667.962	58860.78
668.312	58814.91
668.662	58911.4
669.011	58835.25
669.361	58822.82
669.711	58826.66
670.06	58767.9
670.41	58756.6
670.76	58734.91
671.109	58898.3
671.459	58752.76
671.808	58752.31
672.157	58743.72
672.507	58665.53
672.856	58664.18
673.205	58728.81
673.554	58697.17
673.904	58616.27
674.253	58845.42
674.602	58661.01
674.951	58328.37
675.3	58227.13
675.649	58652.2
675.998	58655.36
676.346	58656.04
676.695	58659.21
677.044	58496.95
677.393	58552.54
677.741	58612.43
678.09	58559.77
678.438	58511.19
678.787	58579.66
679.135	58538.53
679.484	58399.33
679.832	58493.56
680.181	58444.75
680.529	58429.83
680.877	58338.99
681.225	58335.82
681.573	58525.2
681.922	58386.9
682.27	58253.12
682.618	58349.84
682.966	58212.89
683.314	58341.02
683.661	58235.71
684.009	58086.79
684.357	58132.21
684.705	58068.94
685.053	58136.96
685.4	58018.77
685.748	57984.2
686.095	57932.45
686.443	57836.18
686.79	57854.03
687.138	57940.58
687.485	57934.71
687.832	57771.09
688.18	57781.94
688.527	57711.66
688.874	57696.29
689.221	57710.76
689.568	57634.37
689.915	57562.06
690.262	57604.54
690.609	57530.42
690.956	57456.98
691.303	57470.08
691.65	57356.42
691.997	57303.99
692.344	57204.56
692.69	57240.26
693.037	57233.93
693.383	57024.45
693.73	57070.55
694.077	56967.27
694.423	56946.93
694.769	56895.86
695.116	56834.85
695.462	56704
695.808	56637.34
696.155	56749.2
696.501	56471.24
696.847	56564.8
697.193	56384.24
697.539	56459.72
697.885	56309.21
698.231	56231.47
698.577	56297.23
698.923	56258.82
699.269	55946.74
699.614	55948.32
699.96	55945.15
700.306	55870.8
700.651	55800.3
700.997	55663.58
701.342	55639.17
701.688	55633.07
702.033	55543.81
702.379	55540.19
702.724	55413.87
703.069	55505.84
703.415	55159.86
703.76	55157.38
704.105	55188.79
704.45	55095.01
704.795	54989.25
705.14	54893.43
705.485	54921.45
705.83	54737.28
706.175	54858.63
706.52	54729.37
706.865	54645.53
707.209	54520.33
707.554	54518.07
707.899	54487.79
708.243	54296.84
708.588	54378.41
708.932	54176.61
709.277	54296.16
709.621	54137.52
709.966	53899.78
710.31	54000.12
710.654	53794.93
710.998	53872.89
711.342	53906.34
711.687	53744.99
712.031	53666.8
712.375	53537.31
712.719	53472.45
713.063	53332.11
713.407	53559.68
713.75	53329.85
714.094	53413.47
714.438	53255.73
714.782	53260.03
715.125	53098.22
715.469	53177.54
715.812	52951.79
716.156	52981.84
716.499	52864.56
716.843	52957.21
717.186	52783.43
717.53	52908.85
717.873	52828.17
718.216	52776.65
718.559	52579.82
718.902	52433.83
719.246	52473.61
719.589	52310.22
719.932	52189.77
720.275	52284.01
720.617	52262.99
720.96	52135.99
721.303	52131.47
721.646	52224.8
721.989	51924.47
722.331	51952.49
722.674	51926.28
723.016	51965.37
723.359	51749.33
723.701	51866.62
724.044	51706.62
724.386	51541.43
724.729	51690.12
725.071	51590.24
725.413	51582.33
725.755	51526.96
726.097	51396.35
726.439	51314.31
726.782	51313.86
727.124	51407.42
727.465	51191.61
727.807	51191.38
728.149	51225.73
728.491	51076.35
728.833	51073.42
729.175	51017.37
729.516	50934.89
729.858	50925.85
730.199	50979.41
730.541	50880.43
730.882	50672.98
731.224	50754.1
731.565	50665.74
731.906	50716.59
732.248	50728.12
732.589	50565.86
732.93	50528.8
733.271	50439.08
733.612	50421.91
733.953	50611.73
734.294	50360.67
734.635	50221.91
734.976	50414
735.317	50260.11
735.658	50244.74
735.999	50204.51
736.339	50113.67
736.68	50215.81
737.021	50108.24
737.361	49910.51
737.702	50114.57
738.042	49970.17
738.383	49977.85
738.723	50052.88
739.063	49856.5
739.404	49918.19
739.744	49807.91
740.084	49722.27
740.424	49702.61
740.764	49533.57
741.104	49792.09
741.444	49520.46
741.784	49388.04
742.124	49554.36
742.464	49416.51
742.804	49411.09
743.143	49243.41
743.483	49317.53
743.823	49120.25
744.162	49074.15
744.502	49206.57
744.841	49074.83
745.181	49107.14
745.52	49057.2
745.86	49062.85
746.199	48927.48
746.538	48817.21
746.877	49007.71
747.216	48810.2
747.556	48881.61
747.895	48865.34
748.234	48708.96
748.573	48607.04
748.911	48555.74
749.25	48575.18
749.589	48419.25
749.928	48515.52
750.267	48387.61
750.605	48282.3
750.944	48297.22
751.283	48087.73
751.621	48142.42
751.96	48042.08
752.298	47949.88
752.636	47927.06
752.975	47878.47
753.313	47561.19
753.651	47860.85
753.989	47538.82
754.327	47690.68
754.666	47351.48
755.004	47484.81
755.342	47358.03
755.679	47280.75
756.017	46976.35
756.355	47166.85
756.693	46973.86
757.031	47040.08
757.368	46777.71
757.706	46666.98
758.044	46534.1
758.381	46732.51
758.719	46455.23
759.056	46493.2
759.394	46435.35
759.731	46142.7
760.068	46130.27
760.405	46133.66
760.743	45834.46
761.08	45907
761.417	45672.43
761.754	45557.18
762.091	45488.25
762.428	45337.07
762.765	45177.3
763.102	45132.78
763.438	45061.6
763.775	44659.8
764.112	44800.81
764.449	44714.94
764.785	44733.92
765.122	44401.73
765.458	44187.27
765.795	44128.74
766.131	44152.02
766.467	43982.53
766.804	43839.71
767.14	43635.87
767.476	43407.86
767.812	43435.65
768.148	43362.66
768.485	43194.08
768.821	42958.38
769.157	42849.9
769.492	42820.98
769.828	42606.07
770.164	42190.03
770.5	42186.87
770.836	42199.98
771.171	42007.21
771.507	41852.42
771.842	41613.55
772.178	41623.04
772.513	41513.67
772.849	41257.18
773.184	41251.53
773.519	41225.09
773.855	40917.98
774.19	40796.63
774.525	40513.47
774.86	40551.66
775.195	40474.6
775.53	40363.64
775.865	40005.91
776.2	39879.81
776.535	39725.92
776.87	39598.46
777.205	39432.14
777.539	39318.02
777.874	39308.53
778.209	38834.19
778.543	38901.53
778.878	38603.46
779.212	38657.02
779.547	38449.34
779.881	38555.78
780.215	38159.86
780.55	38270.82
780.884	37849.36
781.218	37791.96
781.552	37778.4
781.886	37593.09
782.22	37453.44
782.554	37191.75
782.888	36982.04
783.222	36920.12
783.556	36645.55
783.889	36646
784.223	36415.27
784.557	36470.86
784.89	36463.18
785.224	36069.52
785.557	35836.08
785.891	35933.48
786.224	35712.24
786.558	35778.68
786.891	35477.89
787.224	35301.18
787.557	35247.17
787.891	35199.26
788.224	34892.83
788.557	34966.5
788.89	34890.79
789.223	34666.84
789.556	34426.4
789.888	34389.34
790.221	34290.36
790.554	34219.85
790.887	34126.07
791.219	33912.29
791.552	33789.13
791.884	33738.28
792.217	33623.93
792.549	33558.17
792.882	33278.63
793.214	33184.85
793.546	33238.41
793.879	32919.54
794.211	32675.93
794.543	32834.35
794.875	32897.4
795.207	32727.68
795.539	32537.41
795.871	32639.78
796.203	32343.97
796.535	32183.74
796.867	32189.17
797.198	31909.18
797.53	31710.08
797.862	31572.23
798.193	31848.61
798.525	31735.17
798.856	31635.51
799.188	31144.68
799.519	31281.62
799.85	31098.57
800.182	31000.05
800.513	30999.82
800.844	30635.99
801.175	30946.04
801.506	30813.38
801.837	30625.37
802.168	30554.41
802.499	30546.05
802.83	30323.91
803.161	30163.91
803.491	30179.73
803.822	30165.49
804.153	29890.92
804.483	29808.67
804.814	29766.18
805.145	29733.64
805.475	29623.81
805.805	29607.31
806.136	29585.39
806.466	29347.89
806.796	29272.86
807.126	29111.73
807.457	28993.77
807.787	29206.42
808.117	28931.63
808.447	28852.98
808.777	28889.59
809.107	28655.02
809.436	28707.45
809.766	28606.66
810.096	28595.59
810.426	28436.05
810.755	28507.68
811.085	28303.39
811.414	28383.17
811.744	28128.71
812.073	28318.76
812.403	27971.43
812.732	27993.12
813.061	27960.35
813.39	27777.98
813.719	27637.65
814.049	27900.92
814.378	27656.86
814.707	27583.87
815.036	27548.39
815.365	27387.71
815.693	27270.65
816.022	27201.28
816.351	27164.67
816.68	27031.79
817.008	27124.89
817.337	26870.66
817.665	26825.47
817.994	26745.7
818.322	26872.02
818.651	26794.51
818.979	26548.86
819.307	26705.02
819.636	26605.59
819.964	26464.57
820.292	26484.46
820.62	26391.81
820.948	26430
821.276	26590.9
821.604	26408.53
821.932	26586.6
822.259	26382.77
822.587	26396.1
822.915	26412.14
823.243	26512.03
823.57	26238.82
823.898	26507.74
824.225	26354.74
824.553	26313.84
824.88	26451.69
825.207	26515.19
825.535	26360.62
825.862	26551.12
826.189	26395.2
826.516	26611.69
826.843	26532.37
827.17	26507.74
827.497	26567.62
827.824	26432.48
828.151	26733.72
828.478	26440.39
828.805	26574.4
829.131	26591.8
829.458	26468.87
829.785	26366.27
830.111	26425.7
830.438	26449.21
830.764	26505.25
831.09	26524.91
831.417	26295.99
831.743	26504.8
832.069	26394.97
832.395	26353.39
832.722	26350.45
833.048	26293.73
833.374	26297.57
833.7	26249.21
834.026	26366.72
834.351	26255.76
834.677	26403.33
835.003	26256.22
835.329	26302.32
835.654	26232.49
835.98	26105.26
836.306	26258.48
836.631	26105.71
836.956	26189.55
837.282	26100.97
837.607	26134.86
837.932	26067.07
838.258	25926.51
838.583	25891.03
838.908	25858.03
839.233	25928.77
839.558	25729.22
839.883	25748.43
840.208	25568.78
840.533	25748.89
840.858	25585.05
841.182	25548.66
841.507	25636.35
841.832	25446.29
842.156	25464.15
842.481	25398.39
842.805	25379.86
843.13	25250.14
843.454	25301.67
843.778	25142.8
844.103	25101.67
844.427	25047.89
844.751	25118.39
845.075	25048.56
845.399	24920.66
845.723	24726.99
846.047	24880.66
846.371	24633.66
846.695	24484.06
847.019	24578.75
847.343	24388.47
847.666	24349.15
847.99	24248.36
848.313	24072.55
848.637	24043.85
848.96	23854.02
849.284	23915.94
849.607	23762.5
849.931	23683.18
850.254	23515.27
850.577	23366.35
850.9	23270.31
851.223	23288.84
851.546	23044.32
851.869	23068.96
852.192	23165
852.515	22900.15
852.838	22778.34
853.161	22734.73
853.483	22664.9
853.806	22605.46
854.129	22454.28
854.451	22472.59
854.774	22282.76
855.096	22214.29
855.419	22206.61
855.741	22096.1
856.063	22069.89
856.385	21988.08
856.708	21856.11
857.03	21965.26
857.352	21844.81
857.674	21693.85
857.996	21711.03
858.318	21473.52
858.64	21581.76
858.961	21437.59
859.283	21418.83
859.605	21310.36
859.926	21323.46
860.248	21259.29
860.57	21145.62
860.891	21075.11
861.212	21131.61
861.534	21018.16
861.855	21027.43
862.176	21094.77
862.498	20920.09
862.819	20886.41
863.14	20854.55
863.461	20808
863.782	20708.79
864.103	20790.82
864.424	20665.85
864.745	20678.51
865.065	20581.56
865.386	20530.49
865.707	20525.75
866.027	20528.01
866.348	20379.31
866.668	20346.09
866.989	20359.2
867.309	20195.81
867.63	20187.45
867.95	20182.03
868.27	20087.57
868.59	20162.37
868.91	20062.25
869.23	20153.55
869.55	19893.45
869.87	20098.64
870.19	19980.45
870.51	20063.84
870.83	19860.9
871.15	19902.49
871.469	19764.41
871.789	19857.74
872.109	19836.5
872.428	19768.03
872.748	19735.26
873.067	19611.19
873.386	19719.67
873.706	19729.61
874.025	19663.62
874.344	19508.82
874.663	19554.47
874.982	19546.79
875.301	19464.76
875.62	19353.57
875.939	19376.85
876.258	19344.76
876.577	19262.95
876.896	19303.4
877.214	19282.84
877.533	19252.11
877.852	19264.31
878.17	19181.83
878.489	19182.28
878.807	19127.36
879.125	19086.24
879.444	19121.49
879.762	18966.46
880.08	19039.46
880.398	18916.75
880.716	18911.55
881.034	18865.68
881.352	18775.96
881.67	18748.39
881.988	18753.81
882.306	18718.11
882.624	18712.69
882.941	18662.29
883.259	18573.48
883.577	18545.01
883.894	18454.16
884.212	18458
884.529	18365.8
884.846	18302.3
885.164	18282.41
885.481	18262.98
885.798	18161.06
886.115	18199.25
886.432	18250.33
886.75	18073.38
887.067	18130.1
887.383	18019.14
887.7	17994.06
888.017	17848.53
888.334	17830.45
888.651	17911.58
888.967	17851.24
889.284	17730.34
889.6	17645.37
889.917	17668.65
890.233	17647.18
890.55	17595.65
890.866	17571.47
891.182	17501.42
891.498	17441.31
891.815	17317.24
892.131	17332.38
892.447	17355.89
892.763	17206.74
893.079	17202.44
893.395	17136.91
893.71	17145.95
894.026	17111.15
894.342	17021.43
894.657	16851.04
894.973	16764.04
895.289	16808.1
895.604	16719.07
895.92	16730.14
896.235	16719.07
896.55	16688.56
896.865	16545.29
897.181	16448.56
897.496	16472.52
897.811	16351.39
898.126	16299.64
898.441	16267.1
898.756	16205.63
899.071	16002.93
899.386	16151.17
899.7	15939.88
900.015	15888.81
900.33	15876.15
900.644	15812.42
900.959	15800.45
901.273	15702.14
901.588	15614.01
901.902	15648.59
902.216	15527.01
902.531	15529.72
902.845	15484.07
903.159	15311.42
903.473	15286.79
903.787	15256.73
904.101	15172.44
904.415	15244.53
904.729	15102.16
905.042	14990.3
905.356	15082.95
905.67	14945.1
905.984	14917.98
906.297	14873.24
906.611	14740.59
906.924	14708.27
907.237	14717.31
907.551	14628.05
907.864	14531.55
908.177	14465.34
908.491	14465.79
908.804	14445.91
909.117	14326.81
909.43	14203.88
909.743	14181.51
910.056	14130.89
910.368	14164.56
910.681	14100.6
910.994	14034.39
911.307	13952.59
911.619	13764.34
911.932	13815.41
912.244	13745.13
912.557	13746.49
912.869	13642.31
913.181	13588.07
913.494	13575.19
913.806	13532.48
914.118	13388.76
914.43	13392.37
914.742	13332.71
915.054	13258.82
915.366	13228.76
915.678	13203.23
915.99	13111.48
916.302	12977.24
916.613	12980.18
916.925	12900.86
917.236	12896.57
917.548	12791.71
917.859	12802.33
918.171	12757.81
918.482	12591.94
918.794	12663.58
919.105	12537.71
919.416	12472.85
919.727	12520.98
920.038	12452.06
920.349	12326.19
920.66	12233.53
920.971	12214.1
921.282	12241.44
921.593	12138.62
921.903	12030.38
922.214	12014.33
922.525	11968
922.835	11869.7
923.146	11863.15
923.456	11793.55
923.767	11763.49
924.077	11705.86
924.387	11625.64
924.697	11589.94
925.008	11607.56
925.318	11547
925.628	11482.82
925.938	11508.13
926.248	11371.41
926.558	11324.86
926.867	11244.41
927.177	11265.65
927.487	11236.05
927.796	11120.57
928.106	11191.98
928.416	11070.18
928.725	11044.19
929.034	10955.6
929.344	10956.51
929.653	10927.58
929.962	10782.5
930.271	10711.31
930.581	10667.02
930.89	10629.06
931.199	10523.97
931.508	10586.12
931.817	10567.82
932.125	10527.82
932.434	10480.81
932.743	10390.42
933.051	10327.37
933.36	10283.08
933.669	10238.78
933.977	10237.65
934.286	10119.92
934.594	10042.41
934.902	10035.17
935.21	9982.75
935.519	9962.41
935.827	9980.94
936.135	9850.55
936.443	9755.41
936.751	9805.58
937.059	9789.53
937.367	9690.55
937.674	9727.61
937.982	9660.27
938.29	9675.86
938.597	9617.78
938.905	9465.92
939.213	9460.27
939.52	9425.25
939.827	9413.95
940.135	9293.72
940.442	9272.48
940.749	9260.28
941.056	9239.26
941.363	9168.08
941.67	9152.03
941.977	9102.09
942.284	9066.61
942.591	9068.42
942.898	8996.33
943.205	8969.44
943.511	8929.21
943.818	8909.33
944.125	8768.99
944.431	8795.66
944.738	8741.65
945.044	8649.67
945.35	8717.69
945.657	8607.41
945.963	8591.6
946.269	8535.1
946.575	8606.06
946.881	8444.93
947.187	8447.42
947.493	8352.96
947.799	8313.41
948.105	8309.12
948.41	8250.14
948.716	8232.06
949.022	8208.56
949.327	8158.61
949.633	8052.4
949.938	8089.01
950.244	8089.46
950.549	8029.13
950.854	7993.87
951.16	7926.98
951.465	7952.97
951.77	7899.64
952.075	7933.31
952.38	7757.72
952.685	7827.1
952.99	7717.95
953.294	7691.28
953.599	7639.53
953.904	7576.93
954.209	7595.01
954.513	7489.7
954.818	7539.87
955.122	7501.68
955.426	7512.3
955.731	7420.78
956.035	7395.92
956.339	7360.67
956.643	7307.34
956.948	7282.25
957.252	7236.38
957.556	7221.01
957.86	7206.1
958.163	7209.71
958.467	7118.87
958.771	7126.32
959.075	7099.66
959.378	7011.3
959.682	7022.6
959.985	7005.2
960.289	6913
960.592	6919.32
960.896	6934.24
961.199	6882.49
961.502	6865.54
961.805	6843.62
962.108	6782.83
962.411	6745.99
962.714	6633.68
963.017	6674.13
963.32	6725.88
963.623	6586.9
963.926	6581.25
964.228	6541.03
964.531	6547.13
964.833	6566.79
965.136	6437.08
965.438	6467.58
965.741	6383.97
966.043	6347.59
966.345	6316.63
966.648	6343.07
966.95	6305.33
967.252	6274.14
967.554	6227.82
967.856	6221.26
968.158	6155.95
968.46	6147.14
968.761	6127.71
969.063	6120.93
969.365	5996.18
969.666	6018.78
969.968	5964.09
970.269	5994.83
970.571	5889.07
970.872	5904.66
971.174	5888.39
971.475	5860.82
971.776	5826.02
972.077	5779.47
972.378	5739.02
972.679	5755.06
972.98	5740.6
973.281	5715.97
973.582	5708.28
973.883	5689.98
974.183	5666.02
974.484	5610.88
974.785	5568.17
975.085	5513.94
975.386	5511.9
975.686	5501.28
975.986	5474.39
976.287	5446.82
976.587	5371.79
976.887	5415.18
977.187	5355.52
977.487	5381.06
977.787	5317.33
978.087	5300.16
978.387	5277.78
978.687	5242.08
978.987	5224.23
979.286	5203.66
979.586	5162.08
979.885	5159.82
980.185	5103.1
980.484	5079.82
980.784	5102.2
981.083	5040.73
981.382	5043.44
981.682	5015.42
981.981	4974.06
982.28	4993.05
982.579	4912.37
982.878	4939.71
983.177	4900.17
983.475	4873.28
983.774	4861.52
984.073	4792.15
984.372	4811.58
984.67	4793.96
984.969	4777.69
985.267	4773.17
985.566	4752.6
985.864	4661.76
986.162	4650
986.461	4609.55
986.759	4598.71
987.057	4614.75
987.355	4548.09
987.653	4532.04
987.951	4520.52
988.249	4552.83
988.547	4502.44
988.844	4482.55
989.142	4484.59
989.44	4449.33
989.737	4411.14
990.035	4415.21
990.332	4384.25
990.63	4347.64
990.927	4277.81
991.224	4300.86
991.521	4295.66
991.819	4261.77
992.116	4231.26
992.413	4193.29
992.71	4224.03
993.006	4181.99
993.303	4171.6
993.6	4159.17
993.897	4137.48
994.193	4108.32
994.49	4129.57
994.787	4066.74
995.083	4026.97
995.379	4006.41
995.676	4014.54
995.972	3995.33
996.268	4006.86
996.565	3932.06
996.861	3932.74
997.157	3894.54
997.453	3889.35
997.749	3867.88
998.044	3823.81
998.34	3836.69
998.636	3784.94
998.932	3787.43
999.227	3721.89
999.523	3780.42
999.818	3736.58
1000.114	3707.88
1000.409	3659.07
1000.704	3649.35
1001	3631.05
1001.295	3626.08
1001.59	3593.76
1001.885	3601.22
1002.18	3585.4
1002.475	3516.93
1002.77	3513.31
1003.065	3559.19
1003.359	3448
1003.654	3437.16
1003.949	3417.27
1004.243	3425.4
1004.538	3424.05
1004.832	3359.87
1005.127	3348.12
1005.421	3325.52
1005.715	3322.13
1006.009	3315.35
1006.304	3241
1006.598	3224.05
1006.892	3251.4
1007.186	3224.05
1007.48	3197.84
1007.773	3126.88
1008.067	3166.2
1008.361	3117.84
1008.655	3118.29
1008.948	3106.09
1009.242	3077.39
1009.535	3059.09
1009.829	3042.59
1010.122	2973.44
1010.415	2980.9
1010.708	2979.54
1011.001	2932.99
1011.295	2922.14
1011.588	2907.23
1011.881	2870.62
1012.173	2871.29
1012.466	2888.02
1012.759	2856.15
1013.052	2832.65
1013.344	2807.12
1013.637	2811.18
1013.93	2810.51
1014.222	2763.73
1014.514	2740
1014.807	2744.97
1015.099	2682.15
1015.391	2699.32
1015.683	2684.63
1015.976	2646.89
1016.268	2672.88
1016.56	2622.94
1016.851	2577.29
1017.143	2609.15
1017.435	2524.19
1017.727	2552.88
1018.018	2527.57
1018.31	2505.88
1018.602	2478.54
1018.893	2478.54
1019.185	2476.05
1019.476	2467.69
1019.767	2402.38
1020.058	2419.78
1020.35	2387.92
1020.641	2384.3
1020.932	2379.1
1021.223	2339.56
1021.514	2324.42
1021.804	2307.92
1022.095	2312.21
1022.386	2280.35
1022.677	2272.89
1022.967	2239.9
1023.258	2231.54
1023.548	2211.2
1023.839	2201.93
1024.129	2167.36
1024.419	2148.15
1024.709	2149.96
1025	2126.46
1025.29	2107.92
1025.58	2106.34
1025.87	2113.12
1026.16	2088.04
1026.449	2046.46
1026.739	2041.49
1027.029	2057.08
1027.319	1989.28
1027.608	2012.33
1027.898	2022.5
1028.187	2003.52
1028.477	1961.04
1028.766	1947.03
1029.055	1943.86
1029.344	1948.15
1029.634	1915.16
1029.923	1874.71
1030.212	1900.7
1030.501	1857.31
1030.79	1848.95
1031.078	1849.63
1031.367	1826.8
1031.656	1823.86
1031.945	1792
1032.233	1777.09
1032.522	1779.57
1032.81	1765.33
1033.099	1750.87
1033.387	1749.97
1033.675	1700.7
1033.963	1716.52
1034.251	1691.21
1034.54	1691.21
1034.828	1683.08
1035.116	1688.27
1035.403	1639.91
1035.691	1633.81
1035.979	1609.86
1036.267	1645.34
1036.554	1599.69
1036.842	1602.4
1037.129	1570.76
1037.417	1564.44
1037.704	1546.58
1037.992	1527.15
1038.279	1519.01
1038.566	1531.89
1038.853	1531.89
1039.14	1531.89
