Data from 7415_FLMS001491_005.txt Node
Date: Thu Apr 19 16:29:49 BST 2018
User: hsy
Spectrometer: FLMS00149
Trigger mode: 0
Integration Time (sec): 1.000000E-2
Scans to average: 10
Electric dark correction enabled: true
Nonlinearity correction enabled: false
Boxcar width: 0
XAxis mode: Wavelengths
Number of Pixels in Spectrum: 2048
>>>>>Begin Spectral Data<<<<<
341.393	10.59
341.776	10.59
342.16	10.59
342.543	-50.65
342.927	-64.66
343.31	-55.39
343.693	-66.47
344.077	-66.47
344.46	-50.87
344.843	-58.78
345.226	-38.22
345.61	-39.8
345.993	-15.17
346.376	-16.07
346.759	1.1
347.142	29.35
347.525	31.16
347.908	62.79
348.291	77.03
348.674	78.39
349.057	127.43
349.44	127.65
349.823	129.69
350.206	170.81
350.588	233.19
350.971	247.87
351.354	270.47
351.737	263.69
352.119	292.85
352.502	302.79
352.884	308.21
353.267	328.1
353.65	332.39
354.032	345.05
354.414	360.41
354.797	364.26
355.179	377.59
355.562	386.63
355.944	375.33
356.326	373.97
356.709	397.48
357.091	378.04
357.473	373.3
357.855	393.63
358.238	380.75
358.62	372.39
359.002	378.49
359.384	402.9
359.766	395.67
360.148	367.65
360.53	384.82
360.912	391.6
361.294	389.34
361.676	397.25
362.057	391.6
362.439	388.89
362.821	379.85
363.203	392.05
363.584	355.67
363.966	388.66
364.348	367.19
364.729	377.36
365.111	359.74
365.493	353.86
365.874	386.18
366.256	357.25
366.637	389.11
367.019	380.53
367.4	367.19
367.781	365.16
368.163	382.11
368.544	367.42
368.925	368.78
369.306	382.33
369.688	362.45
370.069	371.26
370.45	380.53
370.831	363.35
371.212	378.49
371.593	361.09
371.974	379.85
372.355	369.45
372.736	390.47
373.117	380.98
373.498	372.39
373.879	372.62
374.26	368.55
374.641	375.78
375.021	389.57
375.402	399.74
375.783	409.45
376.163	423.46
376.544	406.06
376.925	402.9
377.305	406.29
377.686	394.31
378.066	389.11
378.447	422.33
378.827	407.19
379.208	408.1
379.588	403.58
379.968	430.24
380.349	420.07
380.729	405.38
381.109	424.37
381.489	438.15
381.87	422.79
382.25	405.61
382.63	421.43
383.01	444.93
383.39	457.13
383.77	435.21
384.15	436.34
384.53	460.98
384.91	442.45
385.29	456.68
385.67	451.03
386.049	461.88
386.429	442.67
386.809	467.53
387.189	456.68
387.568	451.03
387.948	445.84
388.328	456
388.707	482.9
389.087	472.73
389.466	466.4
389.846	501.65
390.225	488.77
390.605	493.29
390.984	499.85
391.363	504.82
391.743	520.18
392.122	490.13
392.501	502.56
392.881	522.22
393.26	495.78
393.639	539.17
394.018	532.39
394.397	526.51
394.776	512.95
395.155	500.98
395.534	540.3
395.913	538.94
396.292	536
396.671	553.4
397.05	556.12
397.429	561.09
397.808	559.51
398.186	566.06
398.565	575.55
398.944	564.25
399.323	557.25
399.701	578.26
400.08	574.19
400.458	601.31
400.837	608.32
401.215	598.6
401.594	602.22
401.972	585.72
402.351	601.31
402.729	612.84
403.107	620.07
403.486	623.46
403.864	631.59
404.242	629.33
404.62	659.16
404.999	635.44
405.377	668.43
405.755	664.14
406.133	665.49
406.511	689.67
406.889	671.59
407.267	671.37
407.645	712.95
408.023	715.43
408.401	712.27
408.779	727.86
409.156	733.29
409.534	738.48
409.912	767.86
410.29	766.96
410.667	775.54
411.045	773.51
411.422	800.4
411.8	835.2
412.178	809.67
412.555	846.28
412.933	851.02
413.31	846.28
413.687	871.59
414.065	896.22
414.442	881.53
414.819	898.93
415.197	900.06
415.574	912.94
415.951	919.04
416.328	934.18
416.705	941.64
417.082	950.46
417.46	995.43
417.837	1009.66
418.214	994.07
418.591	997.69
418.967	1021.87
419.344	1030.68
419.721	1047.63
420.098	1016.44
420.475	1043.11
420.852	1058.25
421.228	1059.83
421.605	1089.21
421.982	1091.92
422.358	1109.1
422.735	1128.53
423.111	1092.15
423.488	1140.05
423.864	1142.31
424.241	1152.26
424.617	1183.9
424.994	1173.05
425.37	1194.74
425.746	1199.71
426.123	1208.3
426.499	1221.41
426.875	1242.88
427.251	1237.45
427.627	1259.15
428.003	1268.86
428.379	1298.47
428.756	1312.25
429.132	1307.28
429.507	1344.12
429.883	1338.24
430.259	1386.38
430.635	1381.63
431.011	1420.95
431.387	1430.67
431.763	1450.1
432.138	1469.99
432.514	1504.56
432.89	1487.84
433.265	1518.58
433.641	1547.05
434.016	1545.69
434.392	1587.27
434.767	1606.71
435.143	1598.8
435.518	1613.26
435.894	1627.27
436.269	1631.79
436.644	1684.9
437.02	1705.92
437.395	1678.12
437.77	1735.97
438.145	1766.03
438.52	1743.2
438.895	1775.74
439.271	1799.7
439.646	1833.6
440.021	1819.81
440.395	1858.23
440.77	1799.02
441.145	1821.17
441.52	1873.14
441.895	1869.75
442.27	1882.41
442.645	1849.87
443.019	1961.95
443.394	1930.54
443.769	1910.66
444.143	1949.53
444.518	1988.62
444.892	1936.42
445.267	1995.4
445.641	2001.95
446.016	2032.91
446.39	2023.87
446.764	2024.78
447.139	2018.45
447.513	2035.4
447.887	2035.62
448.262	2091.44
448.636	2098.22
449.01	2106.36
449.384	2129.18
449.758	2176.19
450.132	2161.95
450.506	2170.08
450.88	2194.49
451.254	2187.03
451.628	2235.62
452.002	2252.79
452.376	2278.1
452.75	2293.92
453.123	2296.41
453.497	2354.03
453.871	2340.48
454.244	2398.33
454.618	2428.83
454.992	2455.73
455.365	2491.66
455.739	2509.96
456.112	2507.48
456.486	2546.57
456.859	2606
457.232	2633.35
457.606	2658.66
457.979	2678.09
458.352	2756.51
458.725	2756.74
459.099	2800.12
459.472	2767.13
459.845	2839.22
460.218	2855.49
460.591	2916.73
460.964	2921.02
461.337	2919.44
461.71	3045.32
462.083	3053.9
462.456	3035.6
462.829	3055.03
463.201	3147.91
463.574	3136.39
463.947	3196.05
464.32	3247.12
464.692	3258.87
465.065	3281.47
465.438	3337.96
465.81	3347.23
466.183	3364.18
466.555	3464.06
466.928	3524.4
467.3	3467
467.672	3471.29
468.045	3600.1
468.417	3572.53
468.789	3639.2
469.161	3674
469.534	3695.02
469.906	3761.91
470.278	3801.45
470.65	3832.19
471.022	3892.52
471.394	3964.61
471.766	3985.86
472.138	4061.79
472.51	4180.88
472.882	4186.53
473.253	4218.17
473.625	4258.84
473.997	4290.25
474.369	4417.03
474.74	4477.14
475.112	4560.76
475.484	4517.59
475.855	4656.12
476.227	4696.57
476.598	4795.55
476.97	4855.66
477.341	5029.67
477.713	5017.24
478.084	5066.28
478.455	5187.63
478.827	5208.65
479.198	5382.43
479.569	5348.98
479.94	5526.61
480.311	5600.95
480.682	5696.77
481.053	5804.56
481.424	5946.93
481.795	5966.14
482.166	6075.52
482.537	6147.15
482.908	6310.77
483.279	6388.73
483.65	6508.5
484.021	6594.15
484.391	6715.5
484.762	6787.59
485.133	6839.34
485.503	7016.74
485.874	7154.81
486.244	7244.98
486.615	7390.29
486.985	7470.28
487.356	7593.22
487.726	7669.37
488.097	7849.93
488.467	8028.46
488.837	8179.87
489.207	8228.91
489.578	8359.3
489.948	8476.59
490.318	8656.24
490.688	8656.92
491.058	8839.29
491.428	8976.91
491.798	9093.74
492.168	9328.09
492.538	9305.04
492.908	9558.82
493.278	9627.97
493.648	9761.75
494.017	9847.62
494.387	9953.38
494.757	10138.69
495.126	10191.79
495.496	10303.66
495.866	10413.03
496.235	10591.78
496.605	10726.92
496.974	10809.41
497.344	10944.54
497.713	11041.49
498.082	11091.88
498.452	11292.56
498.821	11406
499.19	11496.84
499.559	11654.58
499.928	11737.74
500.298	11818.19
500.667	11990.62
501.036	12052.99
501.405	12150.84
501.774	12263.38
502.143	12334.11
502.512	12486.88
502.88	12652.29
503.249	12615.46
503.618	12827.21
503.987	12853.42
504.356	13022
504.724	13191.72
505.093	13186.52
505.462	13350.81
505.83	13413.86
506.199	13546.28
506.567	13694.07
506.936	13814.52
507.304	14005.48
507.672	14055.65
508.041	14130.67
508.409	14338.13
508.777	14429.2
509.145	14585.58
509.514	14578.12
509.882	14773.59
510.25	14811.33
510.618	15009.07
510.986	15017.2
511.354	15133.36
511.722	15284.54
512.09	15457.64
512.458	15446.12
512.826	15659
513.193	15689.5
513.561	15899.89
513.929	15965.88
514.297	16127.91
514.664	16237.51
515.032	16369.48
515.4	16515.24
515.767	16668.01
516.135	16738.74
516.502	16597.95
516.869	16968.79
517.237	16938.51
517.604	16893.99
517.972	17347.31
518.339	17360.19
518.706	17435.22
519.073	17575.1
519.44	17630.92
519.808	17877.24
520.175	17970.35
520.542	18154.97
520.909	18276.33
521.276	18323.11
521.643	18479.94
522.009	18653.04
522.376	18839.7
522.743	18927.38
523.11	19198.56
523.477	19294.38
523.843	19496.18
524.21	19682.17
524.577	19823.18
524.943	19988.82
525.31	20091.65
525.676	20334.8
526.043	20438.98
526.409	20562.59
526.776	20744.96
527.142	20855.47
527.508	21015.92
527.874	21199.41
528.241	21317.6
528.607	21500.2
528.973	21733.64
529.339	21652.06
529.705	21898.15
530.071	22143.8
530.437	22320.74
530.803	22431.92
531.169	22572.49
531.535	22638.02
531.901	22758.02
532.267	22851.8
532.632	23044.79
532.998	23179.93
533.364	23213.37
533.73	23347.61
534.095	23588.05
534.461	23583.53
534.826	23760.02
535.192	23763.64
535.557	24029.62
535.923	23996.4
536.288	24101.71
536.653	24273.46
537.019	24270.52
537.384	24318.88
537.749	24459.22
538.114	24601.13
538.479	24567.24
538.845	24758.19
539.21	24697.85
539.575	24969.26
539.94	24881.8
540.305	25146.43
540.67	25152.76
541.034	25255.13
541.399	25338.06
541.764	25474.56
542.129	25353.88
542.494	25543.25
542.858	25710.26
543.223	25507.78
543.587	25828.9
543.952	25838.39
544.316	25974.88
544.681	25916.35
545.045	26035.22
545.41	26249.45
545.774	26215.33
546.138	26195.67
546.503	26319.05
546.867	26503.46
547.231	26700.29
547.595	26658.93
547.959	26660.29
548.324	26836.1
548.688	26809.21
549.052	26960.17
549.416	27008.53
549.779	27022.99
550.143	27096.43
550.507	27253.49
550.871	27399.25
551.235	27319.71
551.599	27566.7
551.962	27527.16
552.326	27712.01
552.689	27789.75
553.053	27633.37
553.417	27764.44
553.78	28056.41
554.143	28198.55
554.507	28270.87
554.87	28248.49
555.234	28500.69
555.597	28308.38
555.96	28430.86
556.323	28526.45
556.686	28622.27
557.05	28888.48
557.413	28897.07
557.776	29110.17
558.139	29203.5
558.502	29304.96
558.865	29302.93
559.228	29657.05
559.59	29647.1
559.953	29597.84
560.316	29948.56
560.679	29965.96
561.041	30158.73
561.404	30288.89
561.767	30488.66
562.129	30404.37
562.492	30650.69
562.854	30622.9
563.217	30719.84
563.579	30856.56
563.941	31139.72
564.304	31337
564.666	31412.71
565.028	31540.61
565.39	31667.39
565.753	31828.97
566.115	31878.46
566.477	32121.39
566.839	32197.32
567.201	32581.94
567.563	32486.35
567.925	32709.39
568.287	32724.08
568.648	32915.49
569.01	33111.87
569.372	33402.03
569.734	33233.67
570.095	33641.8
570.457	33750.72
570.819	33769.93
571.18	33907.78
571.542	34362.68
571.903	34266.87
572.265	34403.36
572.626	34671.83
572.987	34675.22
573.349	34952.73
573.71	35160.18
574.071	35374.18
574.432	35626.83
574.794	35814.62
575.155	35909.76
575.516	35960.38
575.877	36240.83
576.238	36113.6
576.599	36441.73
576.96	36646.47
577.32	36786.35
577.681	37029.51
578.042	37246.22
578.403	37247.13
578.763	37332.1
579.124	37418.42
579.485	37928.92
579.845	38095.02
580.206	38006.88
580.566	38221.34
580.927	38431.73
581.287	38809.12
581.648	38787.88
582.008	39124.59
582.368	39324.36
582.728	39517.58
583.089	39557.8
583.449	39746.27
583.809	39976.77
584.169	40366.82
584.529	40315.3
584.889	40831.67
585.249	40840.71
585.609	40848.84
585.969	41340.81
586.329	41505.55
586.688	41849.94
587.048	42104.63
587.408	42159.54
587.768	42443.6
588.127	42891.95
588.487	43131.94
588.846	43599.73
589.206	43422.56
589.565	43803.34
589.925	44241.07
590.284	44327.85
590.643	44596.99
591.003	44921.05
591.362	45368.95
591.721	45556.74
592.08	45777.3
592.44	46193.11
592.799	46406.21
593.158	46638.52
593.517	46710.83
593.876	47245.06
594.235	47411.15
594.593	47674.2
594.952	48018.6
595.311	48049.78
595.67	48478.92
596.029	48853.38
596.387	49023.99
596.746	49263.31
597.104	49378.11
597.463	49565.45
597.822	49974.7
598.18	50051.09
598.538	50301.47
598.897	50822.82
599.255	50687.68
599.613	51286.08
599.972	51236.36
600.33	51558.16
600.688	51624.15
601.046	51915.67
601.404	52255.09
601.762	52441.08
602.12	52670.45
602.478	52731.47
602.836	52976.43
603.194	52902.99
603.552	53229.08
603.91	53340.94
604.268	53550.43
604.625	53735.73
604.983	53999.46
605.341	53842.62
605.698	54188.83
606.056	54408.03
606.413	54479.67
606.771	54737.74
607.128	54819.1
607.485	54882.82
607.843	55010.05
608.2	55242.81
608.557	55377.95
608.914	55443.03
609.272	55639.64
609.629	55808
609.986	56002.12
610.343	55924.83
610.7	56258.61
611.057	56274.88
611.414	56370.47
611.771	56580.4
612.127	56643.23
612.484	56787.63
612.841	56905.14
613.198	56952.37
613.554	56959.6
613.911	57165.02
614.267	57267.39
614.624	57349.65
614.98	57431
615.337	57652.24
615.693	57621.28
616.05	57817.89
616.406	57870.77
616.762	57893.59
617.118	58026.02
617.475	58030.76
617.831	58163.41
618.187	58198.67
618.543	58336.06
618.899	58514.82
619.255	58481.15
619.611	58481.6
619.967	58658.32
620.323	58670.07
620.678	58682.95
621.034	58727.92
621.39	58727.69
621.746	58781.7
622.101	59129.72
622.457	58933.11
622.812	59099.66
623.168	59114.12
623.523	59146.89
623.879	59259.43
624.234	59120.9
624.589	59222.14
624.945	59303.5
625.3	59318.19
625.655	59347.11
626.01	59433.89
626.365	59454.91
626.72	59470.27
627.075	59404.51
627.43	59453.78
627.785	59449.48
628.14	59520.21
628.495	59541.23
628.85	59555.47
629.205	59551.63
629.559	59622.13
629.914	59549.59
630.269	59554.79
630.623	59443.61
630.978	59482.02
631.332	59657.61
631.687	59623.04
632.041	59549.59
632.396	59607.22
632.75	59526.32
633.104	59570.61
633.459	59490.16
633.813	59437.73
634.167	59470.72
634.521	59475.24
634.875	59496.26
635.229	59430.05
635.583	59387.79
635.937	59368.35
636.291	59433.66
636.645	59387.11
636.999	59326.1
637.352	59376.04
637.706	59172.2
638.06	59324.51
638.413	59239.09
638.767	59155.25
639.121	59212.65
639.474	59174.46
639.828	59148.92
640.181	59148.47
640.534	59253.1
640.888	59110.06
641.241	59015.82
641.594	59018.53
641.947	59172.2
642.301	59044.29
642.654	59067.12
643.007	59010.85
643.36	59037.29
643.713	58957.52
644.066	59057.85
644.419	58864.19
644.771	58622.84
645.124	58404.54
645.477	58417.64
645.83	58249.97
646.182	58237.08
646.535	58216.07
646.888	58223.75
647.24	58154.37
647.593	58243.86
647.945	58113.7
648.298	58108.73
648.65	58000.25
649.002	57895.17
649.355	57935.62
649.707	57914.16
650.059	57865.57
650.411	58162.74
650.763	58316.63
651.115	58673.01
651.467	58578.54
651.819	58527.7
652.171	58467.13
652.523	58403.18
652.875	58387.82
653.227	58334.26
653.578	58483.41
653.93	58419.9
654.282	58247.93
654.633	58186.01
654.985	58297.2
655.337	58247.25
655.688	58248.16
656.039	58335.61
656.391	58020.14
656.742	58121.16
657.094	58082.96
657.445	58165
657.796	58044.77
658.147	58093.59
658.498	58050.2
658.849	58131.1
659.2	58040.93
659.551	57985.34
659.902	58034.38
660.253	57926.13
660.604	58042.06
660.955	57890.43
661.306	58058.33
661.656	57889.52
662.007	57915.74
662.358	57870.54
662.708	57862.63
663.059	57809.3
663.409	57711.67
663.76	57852.01
664.11	57871.67
664.461	57888.17
664.811	57887.26
665.161	57758.23
665.511	57790.99
665.862	57777.21
666.212	57876.87
666.562	57854.27
666.912	57779.02
667.262	57690.43
667.612	57697.44
667.962	57762.52
668.312	57708.51
668.662	57816.98
669.011	57835.97
669.361	57734.27
669.711	57678
670.06	57695.4
670.41	57705.8
670.76	57588.29
671.109	57700.83
671.459	57647.5
671.808	57671.22
672.157	57759.58
672.507	57537.44
672.856	57540.15
673.205	57681.62
673.554	57694.05
673.904	57575.18
674.253	57722.75
674.602	57586.71
674.951	57238.92
675.3	57138.81
675.649	57605.46
675.998	57513.04
676.346	57553.94
676.695	57662.41
677.044	57379.71
677.393	57521.4
677.741	57512.13
678.09	57509.42
678.438	57443.66
678.787	57517.56
679.135	57456.54
679.484	57293.15
679.832	57418.57
680.181	57312.14
680.529	57320.95
680.877	57342.42
681.225	57281.86
681.573	57481.17
681.922	57321.4
682.27	57219.94
682.618	57202.08
682.966	57086.83
683.314	57272.36
683.661	57188.75
684.009	57127.28
684.357	57031.24
684.705	57018.13
685.053	57073.27
685.4	56926.61
685.748	56866.27
686.095	56869.44
686.443	56772.72
686.79	56759.16
687.138	56841.87
687.485	56805.26
687.832	56715.54
688.18	56702.44
688.527	56659.05
688.874	56586.51
689.221	56593.51
689.568	56496.79
689.915	56461.31
690.262	56430.35
690.609	56434.65
690.956	56327.53
691.303	56262.67
691.65	56212.05
691.997	56170.92
692.344	55980.19
692.69	56041.21
693.037	56050.25
693.383	55871.05
693.73	55911.27
694.077	55806.64
694.423	55763.03
694.769	55650.94
695.116	55739.52
695.462	55580.21
695.808	55483.48
696.155	55521
696.501	55310.38
696.847	55390.61
697.193	55303.83
697.539	55352.64
697.885	55080.56
698.231	55081.24
698.577	55038.07
698.923	54975.7
699.269	54807.8
699.614	54794.69
699.96	54698.65
700.306	54688.25
700.651	54605.99
700.997	54531.65
701.342	54408.71
701.688	54341.59
702.033	54307.24
702.379	54279.22
702.724	54214.82
703.069	54224.76
703.415	53952.68
703.76	53904.77
704.105	53959.23
704.45	53852.34
704.795	53785
705.14	53639.47
705.485	53704.77
705.83	53477.66
706.175	53582.29
706.52	53423.65
706.865	53350.89
707.209	53200.61
707.554	53289.42
707.899	53225.01
708.243	53048.75
708.588	52975.53
708.932	52897.34
709.277	52968.97
709.621	52791.13
709.966	52567.86
710.31	52703.44
710.654	52499.61
710.998	52522.66
711.342	52526.05
711.687	52364.92
712.031	52332.61
712.375	52077.25
712.719	52192.72
713.063	52079.28
713.407	52168.54
713.75	52044.03
714.094	51943.46
714.438	51870.92
714.782	51855.11
715.125	51602.23
715.469	51869.12
715.812	51536.7
716.156	51529.69
716.499	51555.23
716.843	51522.01
717.186	51291.28
717.53	51423.7
717.873	51449.69
718.216	51285.85
718.559	51295.35
718.902	50845.41
719.246	51006.99
719.589	50962.02
719.932	50869.14
720.275	50844.74
720.617	50889.71
720.96	50730.39
721.303	50690.62
721.646	50711.18
721.989	50535.37
722.331	50610.17
722.674	50479.1
723.016	50502.6
723.359	50314.36
723.701	50403.39
724.044	50249.72
724.386	50058.99
724.729	50243.85
725.071	50084.08
725.413	50066
725.755	50005.44
726.097	49891.54
726.439	49766.8
726.782	49656.97
727.124	49948.26
727.465	49712.34
727.807	49648.38
728.149	49584.2
728.491	49604.54
728.833	49606.35
729.175	49539.46
729.516	49335.85
729.858	49456.3
730.199	49558.67
730.541	49358.45
730.882	49253.14
731.224	49418.11
731.565	49113.93
731.906	49182.86
732.248	49224.89
732.589	48986.48
732.93	48892.02
733.271	48932.24
733.612	48925.69
733.953	48936.09
734.294	48859.25
734.635	48671.01
734.976	48866.26
735.317	48694.74
735.658	48609.54
735.999	48579.71
736.339	48605.7
736.68	48482.31
737.021	48487.06
737.361	48350.79
737.702	48572.48
738.042	48332.71
738.383	48354.18
738.723	48254.07
739.063	48006.39
739.404	48335.65
739.744	48097.92
740.084	48159.61
740.424	48088.42
740.764	47847.08
741.104	48073.06
741.444	47788.77
741.784	47808.21
742.124	47930.24
742.464	47745.38
742.804	47658.83
743.143	47585.16
743.483	47678.72
743.823	47521.89
744.162	47454.32
744.502	47540.42
744.841	47407.99
745.181	47451.61
745.52	47370.25
745.86	47354.43
746.199	47287.09
746.538	47363.25
746.877	47243.02
747.216	47124.83
747.556	47074.89
747.895	47138.62
748.234	47017.94
748.573	46927.33
748.911	46822.24
749.25	46828.57
749.589	46761.23
749.928	46703.38
750.267	46746.09
750.605	46669.25
750.944	46514.68
751.283	46512.2
751.621	46569.37
751.96	46289.38
752.298	46413.67
752.636	46347.68
752.975	46159.89
753.313	46027.46
753.651	46184.52
753.989	45995.37
754.327	45975.94
754.666	45528.27
755.004	45705.89
755.342	45612.33
755.679	45663.18
756.017	45336.86
756.355	45691.88
756.693	45346.12
757.031	45352.23
757.368	45159.91
757.706	45077.88
758.044	44820.26
758.381	44891.22
758.719	44820.26
759.056	44960.15
759.394	44630.89
759.731	44408.75
760.068	44244.01
760.405	44201.97
760.743	44077.68
761.08	44012.37
761.417	43926.5
761.754	43883.56
762.091	43819.84
762.428	43601.31
762.765	43407.87
763.102	43441.32
763.438	43241.09
763.775	43051.95
764.112	43116.8
764.449	43010.37
764.785	42883.82
765.122	42664.84
765.458	42419.65
765.795	42437.05
766.131	42450.38
766.467	42292.42
766.804	41825.76
767.14	41744.64
767.476	41789.83
767.812	41701.02
768.148	41632.1
768.485	41511.87
768.821	41116.86
769.157	41113.69
769.492	40948.05
769.828	41050.87
770.164	40715.06
770.5	40572.24
770.836	40553.93
771.171	40315.97
771.507	40146.26
771.842	39942.2
772.178	40124.57
772.513	39824.01
772.849	39635.09
773.184	39653.84
773.519	39471.25
773.855	39360.52
774.19	39123.24
774.525	38949.68
774.86	38997.82
775.195	38745.62
775.53	38514.67
775.865	38339.75
776.2	38170.49
776.535	37990.39
776.87	38075.13
777.205	37817.73
777.539	37620.68
777.874	37707.68
778.209	37320.8
778.543	37399.21
778.878	37107.92
779.212	37114.25
779.547	36757.2
779.881	36830.64
780.215	36406.92
780.55	36709.29
780.884	36279.47
781.218	36211.67
781.552	36294.61
781.886	36051.91
782.22	35836.09
782.554	35675.19
782.888	35457.34
783.222	35325.6
783.556	35165.83
783.889	35116.34
784.223	34836.34
784.557	34891.94
784.89	34919.28
785.224	34595.67
785.557	34408.33
785.891	34512.06
786.224	34131.5
786.558	34160.43
786.891	33965.41
787.224	33890.38
787.557	33812.42
787.891	33741.91
788.224	33531.52
788.557	33489.26
788.89	33385.53
789.223	33308.25
789.556	33040.46
789.888	33104.41
790.221	32782.16
790.554	32683.63
790.887	32642.73
791.219	32394.83
791.552	32354.6
791.884	32301.5
792.217	32360.7
792.549	32219.46
792.882	31794.84
793.214	31793.94
793.546	31774.05
793.879	31483.66
794.211	31328.64
794.543	31615.19
794.875	31273.73
795.207	31313.27
795.539	31143.11
795.871	31125.93
796.203	30942.66
796.535	30738.6
796.867	30822.21
797.198	30598.49
797.53	30604.36
797.862	30203.25
798.193	30380.87
798.525	30084.6
798.856	30197.14
799.188	29847.77
799.519	29677.61
799.85	29650.27
800.182	29812.52
800.513	29676.48
800.844	29379.76
801.175	29567.78
801.506	29435.81
801.837	29303.83
802.168	29232.88
802.499	29229.49
802.83	28920.57
803.161	28754.47
803.491	28948.82
803.822	28878.76
804.153	28673.12
804.483	28550.86
804.814	28316.06
805.145	28388.15
805.475	28430.18
805.805	28221.15
806.136	28295.5
806.466	28155.84
806.796	28052.79
807.126	27922.85
807.457	27880.82
807.787	27920.37
808.117	27711.56
808.447	27692.12
808.777	27661.39
809.107	27436.09
809.436	27498.46
809.766	27380.72
810.096	27366.94
810.426	27260.5
810.755	27259.37
811.085	27103.21
811.414	27153.16
811.744	26976.66
812.073	26928.98
812.403	26833.39
812.732	26733.28
813.061	26824.58
813.39	26556.56
813.719	26567.41
814.049	26735.77
814.378	26542.32
814.707	26491.7
815.036	26467.07
815.365	26299.17
815.693	26086.74
816.022	26082.9
816.351	25995.45
816.68	25895.56
817.008	26008.78
817.337	25693.76
817.665	25770.82
817.994	25709.35
818.322	25894.66
818.651	25665.96
818.979	25632.97
819.307	25554.33
819.636	25511.84
819.964	25454.9
820.292	25573.54
820.62	25377.16
820.948	25429.81
821.276	25465.29
821.604	25356.37
821.932	25539.41
822.259	25461.22
822.587	25347.55
822.915	25373.77
823.243	25342.58
823.57	25225.52
823.898	25342.13
824.225	25234.11
824.553	25256.03
824.88	25338.97
825.207	25402.92
825.535	25255.13
825.862	25418.06
826.189	25273.88
826.516	25444.73
826.843	25347.55
827.17	25411.28
827.497	25282.7
827.824	25367.89
828.151	25420.55
828.478	25270.04
828.805	25491.73
829.131	25313.43
829.458	25381.45
829.785	25088.35
830.111	25234.79
830.438	25397.04
830.764	25293.32
831.09	25257.16
831.417	25259.87
831.743	25371.73
832.069	25310.94
832.395	25175.13
832.722	25401.34
833.048	25171.29
833.374	25229.82
833.7	25227.11
834.026	25225.52
834.351	25149.59
834.677	25267.33
835.003	25188.46
835.329	25150.72
835.654	25140.1
835.98	24902.37
836.306	25065.53
836.631	24841.58
836.956	24933.78
837.282	25016.26
837.607	24915.7
837.932	24928.81
838.258	24860.56
838.583	24752.54
838.908	24668.48
839.233	24875.25
839.558	24670.28
839.883	24638.19
840.208	24435.49
840.533	24674.13
840.858	24534.69
841.182	24589.16
841.507	24552.32
841.832	24351.42
842.156	24331.54
842.481	24368.37
842.805	24262.61
843.13	24211.76
843.454	24147.81
843.778	24033.01
844.103	24046.57
844.427	23961.83
844.751	23964.99
845.075	23826.69
845.399	23935.84
845.723	23700.14
846.047	23800.02
846.371	23572.91
846.695	23508.96
847.019	23360.71
847.343	23229.64
847.666	23288.17
847.99	23113.94
848.313	23108.97
848.637	23092.47
848.96	22979.93
849.284	22976.09
849.607	22755.53
849.931	22786.94
850.254	22610.45
850.577	22445.94
850.9	22241.65
851.223	22248.2
851.546	22104.48
851.869	21914.65
852.192	22122.55
852.515	21863.13
852.838	21734.09
853.161	21786.97
853.483	21587.65
853.806	21570.03
854.129	21589.91
854.451	21474.89
854.774	21306.76
855.096	21346.76
855.419	21196.7
855.741	21213.43
856.063	21124.61
856.385	20963.94
856.708	20913.09
857.03	20925.07
857.352	20910.61
857.674	20860.89
857.996	20720.1
858.318	20658.19
858.64	20632.88
858.961	20559.66
859.283	20460.45
859.605	20359.66
859.926	20432.2
860.248	20391.07
860.57	20210.74
860.891	20251.19
861.212	20088.94
861.534	20015.94
861.855	19948.15
862.176	19993.57
862.498	20019.11
862.819	20058.43
863.14	19948.6
863.461	19929.39
863.782	19798.55
864.103	19788.15
864.424	19740.47
864.745	19848.72
865.065	19641.72
865.386	19654.37
865.707	19630.42
866.027	19676.29
866.348	19639.91
866.668	19547.71
866.989	19551.55
867.309	19380.48
867.63	19337.54
867.95	19313.14
868.27	19318.11
868.59	19424.09
868.91	19341.16
869.23	19366.69
869.55	19127.15
869.87	19260.48
870.19	19068.17
870.51	19154.95
870.83	19076.53
871.15	19009.64
871.469	19010.55
871.789	19063.43
872.109	18982.98
872.428	18938.46
872.748	18995.18
873.067	18815.97
873.386	18870.44
873.706	18858.68
874.025	18811.68
874.344	18633.61
874.663	18716.77
874.982	18704.79
875.301	18561.74
875.62	18598.58
875.939	18468.19
876.258	18469.32
876.577	18448.3
876.896	18430
877.214	18431.35
877.533	18414.18
877.852	18436.55
878.17	18318.36
878.489	18406.95
878.807	18333.5
879.125	18306.38
879.444	18272.71
879.762	18239.94
880.08	18210.79
880.398	18086.05
880.716	18103
881.034	18063.45
881.352	18122.43
881.67	18023.45
881.988	17973.06
882.306	17899.61
882.624	17896.22
882.941	17761.99
883.259	17785.04
883.577	17823.01
883.894	17711.82
884.212	17641.54
884.529	17578.49
884.846	17628.66
885.164	17533.97
885.481	17444.48
885.798	17486.52
886.115	17344.83
886.432	17413.3
886.75	17287.65
887.067	17277.03
887.383	17294.43
887.7	17200.88
888.017	17159.75
888.334	17166.3
888.651	17145.74
888.967	17055.79
889.284	16932.41
889.6	17017.15
889.917	16816.7
890.233	16879.75
890.55	16823.94
890.866	16804.95
891.182	16737.84
891.498	16686.09
891.815	16600.21
892.131	16536.94
892.447	16590.04
892.763	16495.58
893.079	16495.13
893.395	16391.86
893.71	16390.5
894.026	16301.01
894.342	16190.73
894.657	16231.41
894.973	16116.38
895.289	16145.31
895.604	16039.78
895.92	15924.52
896.235	15912.1
896.55	15865.54
896.865	15802.04
897.181	15748.48
897.496	15782.38
897.811	15697.19
898.126	15682.27
898.441	15573.35
898.756	15685.44
899.071	15353.01
899.386	15532.9
899.7	15367.93
900.015	15343.98
900.33	15152.34
900.644	15140.14
900.959	15122.96
901.273	15057.65
901.588	15030.54
901.902	14994.61
902.216	14881.61
902.531	14845.23
902.845	14720.26
903.159	14704.67
903.473	14719.36
903.787	14668.51
904.101	14602.98
904.415	14648.17
904.729	14537.89
905.042	14415.19
905.356	14391.68
905.67	14322.31
905.984	14282.31
906.297	14278.69
906.611	14165.25
906.924	14126.61
907.237	14066.95
907.551	14061.07
907.864	14003.22
908.177	13981.3
908.491	13885.93
908.804	13780.4
909.117	13665.83
909.43	13646.17
909.743	13531.82
910.056	13600.74
910.368	13487.75
910.681	13490.46
910.994	13420.18
911.307	13320.07
911.619	13208.21
911.932	13273.52
912.244	13163.69
912.557	13242.56
912.869	13056.8
913.181	13047.76
913.494	13034.43
913.806	12894.77
914.118	12913.76
914.43	12786.3
914.742	12735.91
915.054	12704.04
915.366	12645.74
915.678	12614.78
915.99	12546.53
916.302	12460.89
916.613	12419.98
916.925	12426.31
917.236	12382.7
917.548	12239.42
917.859	12267.45
918.171	12145.64
918.482	12166.21
918.794	12107
919.105	12032.2
919.416	11898.42
919.727	11975.48
920.038	11846.67
920.349	11813.22
920.66	11766.22
920.971	11717.86
921.282	11686.44
921.593	11639.67
921.903	11575.26
922.214	11566.67
922.525	11427.02
922.835	11367.58
923.146	11363.74
923.456	11281.48
923.767	11299.11
924.077	11132.79
924.387	11146.12
924.697	11106.8
925.008	11081.04
925.318	11054.6
925.628	11005.33
925.938	10972.34
926.248	10874.49
926.558	10822.29
926.867	10808.05
927.177	10711.33
927.487	10648.73
927.796	10608.51
928.106	10652.12
928.416	10532.58
928.725	10582.97
929.034	10476.98
929.344	10489.87
929.653	10481.28
929.962	10327.84
930.271	10260.94
930.581	10300.49
930.89	10233.83
931.199	10166.26
931.508	10134.17
931.817	10081.74
932.125	10119.71
932.434	9975.08
932.743	9942.54
933.051	9880.62
933.36	9861.86
933.669	9830.9
933.977	9778.25
934.286	9822.09
934.594	9749.09
934.902	9650.34
935.21	9606.95
935.519	9520.4
935.827	9589.55
936.135	9477.46
936.443	9443.34
936.751	9386.39
937.059	9415.54
937.367	9296.45
937.674	9301.42
937.982	9271.82
938.29	9158.15
938.597	9166.51
938.905	9078.15
939.213	9122.9
939.52	9058.26
939.827	9013.52
940.135	8961.77
940.442	8908.66
940.749	8887.65
941.056	8908.66
941.363	8814.66
941.67	8782.11
941.977	8755.9
942.284	8643.36
942.591	8714.54
942.898	8698.73
943.205	8555
943.511	8531.95
943.818	8531.72
944.125	8468
944.431	8414.67
944.738	8418.28
945.044	8329.7
945.35	8223.26
945.657	8259.87
945.963	8254.67
946.269	8173.99
946.575	8179.19
946.881	8123.37
947.187	8090.61
947.493	8091.74
947.799	8002.7
948.105	7933.77
948.41	7908.24
948.716	7949.14
949.022	7875.92
949.327	7839.54
949.633	7727
949.938	7759.54
950.244	7794.12
950.549	7659.21
950.854	7688.13
951.16	7618.53
951.465	7576.27
951.77	7555.48
952.075	7527.68
952.38	7479.32
952.685	7494.92
952.99	7428.48
953.294	7410.62
953.599	7347.35
953.904	7306.22
954.209	7240.69
954.513	7300.57
954.818	7254.02
955.122	7231.87
955.426	7199.1
955.731	7109.39
956.035	7024.42
956.339	7042.72
956.643	7024.19
956.948	6988.04
957.252	7005.44
957.556	6943.52
957.86	6916.63
958.163	6923.41
958.467	6867.81
958.771	6840.92
959.075	6803.63
959.378	6743.3
959.682	6710.53
959.985	6716.18
960.289	6636.86
960.592	6575.39
960.896	6636.63
961.199	6543.75
961.502	6577.2
961.805	6530.2
962.108	6506.69
962.411	6442.29
962.714	6385.34
963.017	6415.17
963.32	6413.59
963.623	6379.24
963.926	6321.39
964.228	6274.84
964.531	6283.65
964.833	6229.64
965.136	6169.08
965.438	6117.55
965.741	6136.76
966.043	6091.79
966.345	6017.67
966.648	6075.07
966.95	6076.42
967.252	6000.72
967.554	5998.91
967.856	5960.94
968.158	5901.74
968.46	5918.69
968.761	5864.68
969.063	5841.4
969.365	5813.38
969.666	5783.1
969.968	5760.5
970.269	5759.59
970.571	5667.85
970.872	5701.52
971.174	5666.04
971.475	5602.54
971.776	5594.4
972.077	5582.88
972.378	5594.63
972.679	5510.34
972.98	5527.51
973.281	5516.89
973.582	5480.51
973.883	5456.78
974.183	5394.41
974.484	5351.47
974.785	5345.82
975.085	5351.02
975.386	5373.84
975.686	5261.08
975.986	5278.93
976.287	5271.92
976.587	5219.72
976.887	5166.39
977.187	5185.37
977.487	5166.62
977.787	5121.19
978.087	5076.67
978.387	5057.01
978.687	5071.48
978.987	4977.24
979.286	5009.56
979.586	4943.8
979.885	4948.99
980.185	4935.44
980.484	4843.91
980.784	4901.99
981.083	4865.15
981.382	4837.13
981.682	4828.32
981.981	4818.6
982.28	4808.66
982.579	4736.34
982.878	4730.47
983.177	4716.46
983.475	4699.51
983.774	4729.11
984.073	4675.33
984.372	4593.75
984.67	4609.34
984.969	4593.98
985.267	4574.77
985.566	4564.82
985.864	4520.98
986.162	4499.06
986.461	4448.89
986.759	4438.27
987.057	4415.67
987.355	4404.38
987.653	4410.48
987.951	4312.63
988.249	4376.35
988.547	4364.6
988.844	4309.46
989.142	4324.6
989.44	4268.33
989.737	4236.24
990.035	4216.58
990.332	4239.41
990.63	4185.17
990.927	4192.4
991.224	4172.07
991.521	4152.18
991.819	4101.56
992.116	4087.32
992.413	4085.51
992.71	4012.3
993.006	4005.97
993.303	3960.55
993.6	4001
993.897	3972.52
994.193	3954.9
994.49	3897.27
994.787	3918.06
995.083	3897.04
995.379	3866.08
995.676	3873.54
995.972	3838.97
996.268	3846.2
996.565	3799.65
996.861	3771.62
997.157	3712.87
997.453	3734.79
997.749	3715.58
998.044	3680.78
998.34	3692.98
998.636	3658.41
998.932	3625.87
999.227	3638.52
999.523	3581.35
999.818	3536.83
1000.114	3547.45
1000.409	3556.94
1000.704	3549.93
1001	3484.4
1001.295	3472.2
1001.59	3434.91
1001.885	3442.59
1002.18	3408.92
1002.475	3370.96
1002.77	3354.01
1003.065	3330.28
1003.359	3299.32
1003.654	3312.88
1003.949	3298.64
1004.243	3265.87
1004.538	3225.2
1004.832	3241.69
1005.127	3241.69
1005.421	3203.28
1005.715	3184.75
1006.009	3148.59
1006.304	3115.82
1006.598	3117.86
1006.892	3123.51
1007.186	3050.74
1007.48	3054.13
1007.773	3044.19
1008.067	3047.35
1008.361	3037.41
1008.655	2997.86
1008.948	2948.37
1009.242	2991.08
1009.535	2923.74
1009.829	2904.08
1010.122	2889.84
1010.415	2901.14
1010.708	2860.01
1011.001	2841.03
1011.295	2855.49
1011.588	2826.34
1011.881	2797.41
1012.173	2803.97
1012.466	2789.95
1012.759	2731.88
1013.052	2723.06
1013.344	2730.97
1013.637	2677.87
1013.93	2692.78
1014.222	2671.31
1014.514	2662.73
1014.807	2632.22
1015.099	2614.82
1015.391	2590.64
1015.683	2590.86
1015.976	2566.23
1016.268	2520.13
1016.56	2517.42
1016.851	2509.74
1017.143	2493.24
1017.435	2481.71
1017.727	2485.33
1018.018	2424.99
1018.31	2412.34
1018.602	2362.4
1018.893	2374.37
1019.185	2360.59
1019.476	2390.42
1019.767	2368.5
1020.058	2323.3
1020.35	2326.69
1020.641	2272
1020.932	2227.03
1021.223	2276.97
1021.514	2232.23
1021.804	2207.15
1022.095	2222.06
1022.386	2204.43
1022.677	2173.02
1022.967	2164.66
1023.258	2171.21
1023.548	2161.95
1023.839	2130.54
1024.129	2108.84
1024.419	2114.72
1024.709	2046.7
1025	2061.39
1025.29	2044.21
1025.58	2046.25
1025.87	2029.75
1026.16	2027.49
1026.449	1996.98
1026.739	1967.83
1027.029	1991.11
1027.319	1950.65
1027.608	1924.44
1027.898	1945.68
1028.187	1886.02
1028.477	1930.09
1028.766	1899.36
1029.055	1843.77
1029.344	1867.04
1029.634	1860.49
1029.923	1834.73
1030.212	1829.75
1030.501	1825.91
1030.79	1790.43
1031.078	1762.86
1031.367	1774.39
1031.656	1737.33
1031.945	1721.96
1032.233	1709.76
1032.522	1721.96
1032.81	1717.89
1033.099	1689.42
1033.387	1716.31
1033.675	1663.88
1033.963	1618.91
1034.251	1659.36
1034.54	1628.4
1034.828	1615.97
1035.116	1601.06
1035.403	1606.48
1035.691	1597.44
1035.979	1571
1036.267	1577.33
1036.554	1538.24
1036.842	1554.51
1037.129	1547.5
1037.417	1500.95
1037.704	1476.54
1037.992	1495.3
1038.279	1489.88
1038.566	1480.16
1038.853	1480.16
1039.14	1480.16
