Data from 7415_FLMS001491_002.txt Node
Date: Thu Apr 19 16:29:42 BST 2018
User: hsy
Spectrometer: FLMS00149
Trigger mode: 0
Integration Time (sec): 1.000000E-2
Scans to average: 10
Electric dark correction enabled: true
Nonlinearity correction enabled: false
Boxcar width: 0
XAxis mode: Wavelengths
Number of Pixels in Spectrum: 2048
>>>>>Begin Spectral Data<<<<<
341.393	-15.3
341.776	-15.3
342.16	-15.3
342.543	-66.59
342.927	-74.5
343.31	-52.36
343.693	-72.24
344.077	-73.15
344.46	-51.45
344.843	-56.88
345.226	-53.49
345.61	-26.6
345.993	-27.27
346.376	-1.06
346.759	17.92
347.142	18.83
347.525	36.45
347.908	61.54
348.291	61.31
348.674	104.25
349.057	114.19
349.44	100.41
349.823	134.08
350.206	184.47
350.588	233.96
350.971	239.84
351.354	288.2
351.737	278.03
352.119	275.09
352.502	310.57
352.884	293.4
353.267	322.32
353.65	333.4
354.032	333.17
354.414	334.3
354.797	362.09
355.179	367.29
355.562	367.07
355.944	373.85
356.326	367.74
356.709	393.73
357.091	377.46
357.473	363.22
357.855	372.72
358.238	363
358.62	398.93
359.002	390.79
359.384	382.89
359.766	386.73
360.148	376.78
360.53	383.34
360.912	379.04
361.294	364.81
361.676	380.4
362.057	383.56
362.439	382.89
362.821	375.43
363.203	373.17
363.584	379.04
363.966	381.3
364.348	385.6
364.729	376.56
365.111	363.9
365.493	360.74
365.874	388.76
366.256	367.74
366.637	367.52
367.019	366.61
367.4	366.16
367.781	381.08
368.163	377.46
368.544	381.98
368.925	367.97
369.306	371.59
369.688	342.89
370.069	379.04
370.45	388.31
370.831	361.64
371.212	361.64
371.593	398.25
371.974	366.39
372.355	379.27
372.736	355.99
373.117	390.79
373.498	374.98
373.879	363.45
374.26	374.3
374.641	379.04
375.021	374.3
375.402	381.08
375.783	408.87
376.163	424.92
376.544	392.83
376.925	396.44
377.305	392.83
377.686	403.22
378.066	415.65
378.447	414.75
378.827	415.43
379.208	394.41
379.588	399.83
379.968	414.97
380.349	432.38
380.729	428.08
381.109	427.4
381.489	440.29
381.87	401.64
382.25	433.28
382.63	419.72
383.01	427.18
383.39	412.26
383.77	466.05
384.15	442.54
384.53	432.15
384.91	452.49
385.29	442.77
385.67	443.45
386.049	439.83
386.429	457.69
386.809	463.11
387.189	466.5
387.568	484.58
387.948	447.52
388.328	470.11
388.707	470.11
389.087	469.89
389.466	473.05
389.846	493.84
390.225	501.07
390.605	471.47
390.984	511.47
391.363	493.84
391.743	499.72
392.122	499.27
392.501	502.2
392.881	515.31
393.26	510.34
393.639	521.41
394.018	532.03
394.397	520.28
394.776	520.73
395.155	535.88
395.534	539.72
395.913	522.32
396.292	522.32
396.671	555.99
397.05	546.5
397.429	544.01
397.808	547.63
398.186	576.1
398.565	560.96
398.944	570.68
399.323	560.06
399.701	574.07
400.08	580.62
400.458	570.45
400.837	586.04
401.215	581.52
401.594	595.08
401.972	593.28
402.351	605.25
402.729	613.84
403.107	621.75
403.486	636.66
403.864	624.69
404.242	618.13
404.62	631.47
404.999	653.61
405.377	666.04
405.755	665.36
406.133	659.71
406.511	661.97
406.889	682.31
407.267	683.89
407.645	718.47
408.023	719.15
408.401	729.09
408.779	719.6
409.156	761.41
409.534	748.98
409.912	764.12
410.29	781.52
410.667	802.08
411.045	782.65
411.422	794.17
411.8	831.01
412.178	833.04
412.555	835.3
412.933	847.28
413.31	842.08
413.687	880.95
414.065	926.6
414.442	892.93
414.819	911.23
415.197	939.03
415.574	926.83
415.951	960.95
416.328	958.92
416.705	965.47
417.082	966.6
417.46	951.23
417.837	1019.7
418.214	997.78
418.591	1019.48
418.967	1052.92
419.344	1025.13
419.721	1053.15
420.098	1055.41
420.475	1086.82
420.852	1082.08
421.228	1077.56
421.605	1080.72
421.982	1087.05
422.358	1095.41
422.735	1133.83
423.111	1167.5
423.488	1137.44
423.864	1165.24
424.241	1180.15
424.617	1184.67
424.994	1164.56
425.37	1176.76
425.746	1203.65
426.123	1236.2
426.499	1241.62
426.875	1245.69
427.251	1257.21
427.627	1309.19
428.003	1298.79
428.379	1307.83
428.756	1347.61
429.132	1342.41
429.507	1380.83
429.883	1407.27
430.259	1383.54
430.635	1400.49
431.011	1408.62
431.387	1471.67
431.763	1497.43
432.138	1500.82
432.514	1523.19
432.89	1524.32
433.265	1546.02
433.641	1579.01
434.016	1580.14
434.392	1618.33
434.767	1662.63
435.143	1616.3
435.518	1640.48
435.894	1680.25
436.269	1686.13
436.644	1670.99
437.02	1698.56
437.395	1748.05
437.77	1748.95
438.145	1807.48
438.52	1788.05
438.895	1804.54
439.271	1820.59
439.646	1837.31
440.021	1880.02
440.395	1869.4
440.77	1837.31
441.145	1879.57
441.52	1921.38
441.895	1932
442.27	1933.35
442.645	1892.45
443.019	1949.4
443.394	1920.47
443.769	1960.7
444.143	1962.5
444.518	2005.22
444.892	2005.22
445.267	2006.57
445.641	1995.5
446.016	2048.6
446.39	2051.54
446.764	2049.51
447.139	2081.82
447.513	2108.04
447.887	2108.04
448.262	2130.18
448.636	2097.64
449.01	2157.75
449.384	2189.84
449.758	2150.97
450.132	2210.86
450.506	2181.26
450.88	2269.39
451.254	2245.66
451.628	2289.95
452.002	2304.19
452.376	2313.23
452.75	2321.14
453.123	2347.35
453.497	2367.69
453.871	2396.17
454.244	2465.54
454.618	2458.09
454.992	2503.28
455.365	2541.25
455.739	2530.63
456.112	2573.34
456.486	2573.56
456.859	2639.1
457.232	2695.14
457.606	2659.44
457.979	2733.11
458.352	2764.97
458.725	2786.44
459.099	2846.55
459.472	2865.53
459.845	2942.14
460.218	2951.41
460.591	2971.07
460.964	3006.09
461.337	3025.3
461.71	3097.16
462.083	3119.08
462.456	3112.08
462.829	3167.9
463.201	3206.31
463.574	3187.11
463.947	3305.52
464.32	3320.21
464.692	3324.5
465.065	3316.59
465.438	3353.88
465.81	3441.79
466.183	3431.84
466.555	3519.75
466.928	3596.36
467.3	3534.89
467.672	3603.82
468.045	3698.73
468.417	3702.12
468.789	3666.64
469.161	3737.15
469.534	3811.72
469.906	3842.68
470.278	3890.14
470.65	3913.19
471.022	4013.3
471.394	4070.92
471.766	4088.1
472.138	4145.72
472.51	4238.6
472.882	4304.14
473.253	4348.2
473.625	4416.9
473.997	4478.37
474.369	4493.06
474.74	4522.44
475.112	4615.54
475.484	4631.81
475.855	4750.23
476.227	4820.06
476.598	4952.71
476.97	4977.11
477.341	5085.13
477.713	5187.05
478.084	5202.42
478.455	5323.55
478.827	5380.95
479.198	5529.64
479.569	5559.7
479.94	5670.43
480.311	5744.55
480.682	5849.41
481.053	6008.05
481.424	6072.68
481.795	6139.34
482.166	6310.64
482.537	6354.48
482.908	6486.45
483.279	6561.93
483.65	6715.37
484.021	6837.86
484.391	6885.54
484.762	6931.87
485.133	7068.81
485.503	7121.92
485.874	7349.71
486.244	7392.19
486.615	7544.96
486.985	7676.25
487.356	7824.5
487.726	7922.35
488.097	8154.66
488.467	8202.57
488.837	8363.69
489.207	8447.31
489.578	8679.62
489.948	8755.77
490.318	8833.51
490.688	8828.09
491.058	9171.35
491.428	9259.94
491.798	9315.76
492.168	9559.37
492.538	9633.26
492.908	9784.22
493.278	9920.71
493.648	10025.57
494.017	10183.08
494.387	10271.21
494.757	10406.58
495.126	10624.65
495.496	10661.26
495.866	10759.56
496.235	10895.83
496.605	10991.65
496.974	11129.95
497.344	11243.39
497.713	11386.66
498.082	11460.79
498.452	11678.63
498.821	11796.14
499.19	11818.74
499.559	12041.11
499.928	12125.85
500.298	12220.54
500.667	12375.79
501.036	12429.8
501.405	12583.92
501.774	12656.46
502.143	12848.77
502.512	12931.03
502.88	13028.43
503.249	13094.87
503.618	13298.25
503.987	13323.56
504.356	13387.29
504.724	13584.35
505.093	13801.06
505.462	13804.91
505.83	13962.64
506.199	14126.25
506.567	14311.11
506.936	14340.94
507.304	14563.76
507.672	14657.31
508.041	14612.79
508.409	14831.32
508.777	14916.97
509.145	15071.54
509.514	15154.47
509.882	15336.62
510.25	15458.2
510.618	15548.59
510.986	15586.1
511.354	15702.93
511.722	15936.15
512.09	16085.52
512.458	16079.2
512.826	16218.85
513.193	16462.24
513.561	16422.69
513.929	16572.29
514.297	16746.52
514.664	16930.25
515.032	16916.24
515.4	17183.35
515.767	17177.92
516.135	17363.91
516.502	17280.97
516.869	17710.11
517.237	17845.48
517.604	17709.44
517.972	18033.27
518.339	18114.62
518.706	18197.56
519.073	18290.66
519.44	18475.29
519.808	18700.82
520.175	18673.93
520.542	18931.32
520.909	19060.59
521.276	19137.42
521.643	19407.47
522.009	19492.89
522.376	19627.58
522.743	19793.9
523.11	20073.22
523.477	20217.17
523.843	20364.73
524.21	20536.71
524.577	20664.84
524.943	20910.48
525.31	20939.86
525.676	21172.4
526.043	21388.89
526.409	21433.41
526.776	21797.92
527.142	21829.33
527.508	21998.14
527.874	22235.19
528.241	22414.85
528.607	22411.68
528.973	22733.48
529.339	22776.65
529.705	23067.71
530.071	23293.24
530.437	23249.4
530.803	23462.96
531.169	23687.58
531.535	23613.69
531.901	23871.99
532.267	23997.86
532.632	24155.14
532.998	24223.39
533.364	24373.22
533.73	24449.6
534.095	24668.57
534.461	24739.31
534.826	24925.52
535.192	24950.6
535.557	25195.57
535.923	25229.46
536.288	25346.52
536.653	25503.58
537.019	25531.83
537.384	25622.22
537.749	25697.25
538.114	25818.83
538.479	25824.93
538.845	25852.27
539.21	25846.4
539.575	26040.06
539.94	26198.7
540.305	26244.58
540.67	26401.64
541.034	26485.48
541.399	26662.19
541.764	26679.37
542.129	26585.13
542.494	26920.49
542.858	27014.95
543.223	26870.78
543.587	27063.99
543.952	27186.47
544.316	27364.32
544.681	27378.11
545.045	27355.28
545.41	27555.05
545.774	27456.3
546.138	27566.35
546.503	27730.19
546.867	27812.22
547.231	27894.93
547.595	27970.41
547.959	28164.98
548.324	28149.39
548.688	28242.49
549.052	28298.76
549.416	28295.82
549.779	28469.6
550.143	28482.71
550.507	28610.17
550.871	28707.34
551.235	28625.31
551.599	28831.63
551.962	28945.07
552.326	28984.17
552.689	29240.43
553.053	29056.26
553.417	29253.54
553.78	29535.57
554.143	29588.9
554.507	29665.96
554.87	29811.04
555.234	30031.82
555.597	29746.86
555.96	30037.02
556.323	30141.65
556.686	30236.11
557.05	30447.63
557.413	30622.54
557.776	30416.67
558.139	30702.99
558.502	30832.48
558.865	30862.08
559.228	31145.69
559.59	31205.58
559.953	31267.05
560.316	31606.47
560.679	31585
561.041	31712.23
561.404	31867.71
561.767	32122.16
562.129	32005.78
562.492	32432.44
562.854	32380.46
563.217	32423.17
563.579	32627.46
563.941	32881.92
564.304	32997.62
564.666	33151.52
565.028	33259.54
565.39	33473.09
565.753	33665.85
566.115	33624.5
566.477	33783.82
566.839	33967.77
567.201	34448.2
567.563	34332.05
567.925	34717.35
568.287	34737.46
568.648	34741.98
569.01	34972.71
569.372	35257
569.734	35320.05
570.095	35453.83
570.457	35767.94
570.819	35847.94
571.18	35927.49
571.542	36105.11
571.903	36283.64
572.265	36509.39
572.626	36699.9
572.987	36746.45
573.349	36932.43
573.71	37138.53
574.071	37355.7
574.432	37442.48
574.794	37889.7
575.155	37912.52
575.516	37981.44
575.877	38044.49
576.238	38324.03
576.599	38484.48
576.96	38609.68
577.32	38732.84
577.681	38929.22
578.042	39287.85
578.403	39274.29
578.763	39347.74
579.124	39469.77
579.485	39939.81
579.845	40140.03
580.206	40287.15
580.566	40317.2
580.927	40649.4
581.287	40908.83
581.648	40741.37
582.008	41262.26
582.368	41451.41
582.728	41617.06
583.089	41621.12
583.449	41902.02
583.809	42041.68
584.169	42212.52
584.529	42262.91
584.889	42853.86
585.249	42783.8
585.609	42803.92
585.969	43188.31
586.329	43274.41
586.688	43762.99
587.048	43919.59
587.408	44171.34
587.768	44298.57
588.127	44633.7
588.487	44765
588.846	45249.95
589.206	45144.42
589.565	45502.83
589.925	45944.17
590.284	46037.05
590.643	46261.23
591.003	46403.82
591.362	46929.91
591.721	47090.58
592.08	47289
592.44	47827.29
592.799	47784.58
593.158	48042.2
593.517	48211.68
593.876	48625.68
594.235	48647.61
594.593	49065
594.952	49293.24
595.311	49355.38
595.67	49659.78
596.029	50186.32
596.387	50325.75
596.746	50577.27
597.104	50571.4
597.463	50737.95
597.822	51120.08
598.18	51228.1
598.538	51403.46
598.897	51691.82
599.255	51725.49
599.613	52295.19
599.972	52190.56
600.33	52483.89
600.688	52554.39
601.046	52783.54
601.404	53131.1
601.762	53321.61
602.12	53409.97
602.478	53587.36
602.836	53747.81
603.194	53688.6
603.552	54016.28
603.91	54022.15
604.268	54306.89
604.625	54392.76
604.983	54718.18
605.341	54573.1
605.698	54980.32
606.056	55147.55
606.413	55164.5
606.771	55482.45
607.128	55535.56
607.485	55564.26
607.843	55697.36
608.2	55898.71
608.557	56118.6
608.914	56088.09
609.272	56385.03
609.629	56502.77
609.986	56705.92
610.343	56688.52
610.7	56986.14
611.057	56901.4
611.414	56991.57
611.771	57145.23
612.127	57312.01
612.484	57376.64
612.841	57526.69
613.198	57507.26
613.554	57558.33
613.911	57786.57
614.267	57930.98
614.624	57947.93
614.98	57993.35
615.337	58281.25
615.693	58302.04
616.05	58359.89
616.406	58481.92
616.762	58495.93
617.118	58514.69
617.475	58571.19
617.831	58785.87
618.187	58833.55
618.543	58861.57
618.899	59005.75
619.255	59058.18
619.611	59055.24
619.967	59219.53
620.323	59368
620.678	59253.2
621.034	59275.35
621.39	59297.49
621.746	59359.87
622.101	59654.32
622.457	59511.73
622.812	59618.16
623.168	59662.68
623.523	59665.17
623.879	59755.34
624.234	59701.1
624.589	59831.72
624.945	59796.24
625.3	59934.54
625.655	59870.81
626.01	59998.27
626.365	60009.11
626.72	59969.79
627.075	59953.75
627.43	60010.02
627.785	60112.39
628.14	60037.59
628.495	60108.77
628.85	60207.98
629.205	60061.77
629.559	60225.83
629.914	60100.41
630.269	60141.31
630.623	60055.67
630.978	60026.29
631.332	60179.96
631.687	60227.87
632.041	60147.19
632.396	60090.92
632.75	60100.86
633.104	60133.4
633.459	60012.73
633.813	60007.98
634.167	60045.95
634.521	60039.17
634.875	60052.05
635.229	60008.44
635.583	59900.19
635.937	59901.55
636.291	59884.82
636.645	59879.85
636.999	59845.95
637.352	59895.44
637.706	59755.79
638.06	59848.44
638.413	59775
638.767	59769.8
639.121	59810.25
639.474	59655.9
639.828	59675.56
640.181	59691.16
640.534	59773.41
640.888	59644.38
641.241	59504.49
641.594	59564.38
641.947	59678.73
642.301	59569.8
642.654	59589.69
643.007	59517.15
643.36	59558.96
643.713	59503.59
644.066	59553.98
644.419	59497.26
644.771	59181.79
645.124	58895.92
645.477	58986.77
645.83	58791.97
646.182	58820.9
646.535	58705.42
646.888	58735.02
647.24	58688.02
647.593	58869.26
647.945	58667.23
648.298	58583.39
648.65	58596.95
649.002	58512.43
649.355	58450.29
649.707	58352.89
650.059	58387.91
650.411	58718.53
650.763	58842.14
651.115	59124.84
651.467	58976.82
651.819	59005.75
652.171	58953.77
652.523	58908.8
652.875	58956.26
653.227	58748.58
653.578	58994.45
653.93	58963.49
654.282	58791.07
654.633	58763.27
654.985	58757.85
655.337	58738.19
655.688	58712.2
656.039	58834
656.391	58518.98
656.742	58592.65
657.094	58600.79
657.445	58551.3
657.796	58679.43
658.147	58578.64
658.498	58662.26
658.849	58665.42
659.2	58539.77
659.551	58497.97
659.902	58670.84
660.253	58477.4
660.604	58589.94
660.955	58447.35
661.306	58520.34
661.656	58434.69
662.007	58407.12
662.358	58479.21
662.708	58515.59
663.059	58445.54
663.409	58293.23
663.76	58450.29
664.11	58356.05
664.461	58422.72
664.811	58480.79
665.161	58448.93
665.511	58336.16
665.862	58374.13
666.212	58354.47
666.562	58418.87
666.912	58322.6
667.262	58216.62
667.612	58312.21
667.962	58325.77
668.312	58198.54
668.662	58316.96
669.011	58314.47
669.361	58291.65
669.711	58331.64
670.06	58317.18
670.41	58233.12
670.76	58253.45
671.109	58296.62
671.459	58194.47
671.808	58209.16
672.157	58240.57
672.507	58145.66
672.856	58127.13
673.205	58189.05
673.554	58182.04
673.904	58167.13
674.253	58312.21
674.602	58181.59
674.951	57867.02
675.3	57724.2
675.649	58138.65
675.998	58134.14
676.346	58208.48
676.695	58238.54
677.044	57990.86
677.393	58141.14
677.741	58171.65
678.09	58035.38
678.438	58036.51
678.787	58093.23
679.135	58104.08
679.484	57956.06
679.832	58018.43
680.181	57981.37
680.529	57949.51
680.877	57988.6
681.225	57875.84
681.573	58034.02
681.922	57836.52
682.27	57814.6
682.618	57876.97
682.966	57829.06
683.314	57853.92
683.661	57752.22
684.009	57705.9
684.357	57618.44
684.705	57592.23
685.053	57610.76
685.4	57569.63
685.748	57479.92
686.095	57507.03
686.443	57381.84
686.79	57312.91
687.138	57417.32
687.485	57398.11
687.832	57276.98
688.18	57282.86
688.527	57262.29
688.874	57138.23
689.221	57208.06
689.568	57088.06
689.915	57106.59
690.262	56990.89
690.609	56990.89
690.956	56830.21
691.303	56898.91
691.65	56804.23
691.997	56731.23
692.344	56638.58
692.69	56622.08
693.037	56660.28
693.383	56417.8
693.73	56583.22
694.077	56406.05
694.423	56369.89
694.769	56251.02
695.116	56360.17
695.462	56227.97
695.808	56075.21
696.155	56160.63
696.501	55885.15
696.847	56005.6
697.193	55818.49
697.539	55861.2
697.885	55658.04
698.231	55659.17
698.577	55643.13
698.923	55587.99
699.269	55417.82
699.614	55344.15
699.96	55295.79
700.306	55328.33
700.651	55219.41
700.997	55007.21
701.342	55010.15
701.688	54985.07
702.033	54915.69
702.379	54951.85
702.724	54756.82
703.069	54869.14
703.415	54533.78
703.76	54497.85
704.105	54609.48
704.45	54424.85
704.795	54338.08
705.14	54199.78
705.485	54252.2
705.83	54074.81
706.175	54209.04
706.52	53983.28
706.865	53935.83
707.209	53867.35
707.554	53820.35
707.899	53786.68
708.243	53694.93
708.588	53683.86
708.932	53520.47
709.277	53560.92
709.621	53423.98
709.966	53242.51
710.31	53271.44
710.654	53176.98
710.998	53181.95
711.342	53203.19
711.687	53029.86
712.031	52939.24
712.375	52824.22
712.719	52873.93
713.063	52796.87
713.407	52875.74
713.75	52590.1
714.094	52664
714.438	52534.51
714.782	52532.93
715.125	52421.52
715.469	52575.41
715.812	52279.15
716.156	52161.86
716.499	52232.82
716.843	52191.01
717.186	52054.3
717.53	52206.16
717.873	52121.86
718.216	52010.23
718.559	51919.16
718.902	51742.89
719.246	51837.13
719.589	51603.69
719.932	51429.9
720.275	51577.47
720.617	51487.98
720.96	51346.07
721.303	51395.78
721.646	51438.27
721.989	51234.43
722.331	51345.84
722.674	51199.4
723.016	51134.32
723.359	51066.52
723.701	50997.37
724.044	50904.95
724.386	50824.5
724.729	50981.33
725.071	50843.93
725.413	50794.67
725.755	50687.33
726.097	50638.74
726.439	50544.96
726.782	50471.51
727.124	50706.99
727.465	50565.29
727.807	50316.26
728.149	50448.46
728.491	50187
728.833	50310.16
729.175	50248.69
729.516	50146.1
729.858	50101.13
730.199	50114.23
730.541	50145.42
730.882	49948.14
731.224	49991.07
731.565	49796.5
731.906	49825.88
732.248	49954.24
732.589	49625.88
732.93	49529.16
733.271	49627.92
733.612	49524.64
733.953	49628.82
734.294	49517.19
734.635	49429.28
734.976	49625.88
735.317	49308.83
735.658	49261.15
735.999	49220.47
736.339	49203.07
736.68	49168.5
737.021	49141.6
737.361	48956.75
737.702	49258.21
738.042	49108.61
738.383	49164.65
738.723	49237.42
739.063	48925.79
739.404	48996.52
739.744	48847.83
740.084	48671.56
740.424	48786.36
740.764	48748.62
741.104	48758.56
741.444	48661.16
741.784	48500.49
742.124	48594.05
742.464	48558.57
742.804	48415.07
743.143	48376.65
743.483	48284
743.823	48237.45
744.162	48273.6
744.502	48334.39
744.841	48194.06
745.181	48249.42
745.52	48109.99
745.86	48068.86
746.199	48054.4
746.538	48049.65
746.877	48171.01
747.216	47915.65
747.556	47872.94
747.895	47722.21
748.234	47848.08
748.573	47729.66
748.911	47665.26
749.25	47498.03
749.589	47400.86
749.928	47587.52
750.267	47557.69
750.605	47238.6
750.944	47209.45
751.283	47286.51
751.621	47300.52
751.96	47042.68
752.298	47095.33
752.636	47119.06
752.975	46851.95
753.313	46736.02
753.651	47044.03
753.989	46746.64
754.327	46819.63
754.666	46465.29
755.004	46553.42
755.342	46461.22
755.679	46498.51
756.017	46187.78
756.355	46430.94
756.693	46223.26
757.031	46170.38
757.368	45978.97
757.706	45989.82
758.044	45788.25
758.381	45704.86
758.719	45616.95
759.056	45663.95
759.394	45535.14
759.731	45103.52
760.068	45223.97
760.405	45131.99
760.743	44947.59
761.08	44812.45
761.417	44787.59
761.754	44503.31
762.091	44630.08
762.428	44296.08
762.765	44161.62
763.102	44178.57
763.438	44015.18
763.775	43765.25
764.112	43821.29
764.449	43732.48
764.785	43579.49
765.122	43374.98
765.458	43209.56
765.795	43386.73
766.131	43312.83
766.467	42999.62
766.804	42626.07
767.14	42652.06
767.476	42489.57
767.812	42426.98
768.148	42347.88
768.485	42227.43
768.821	41840.33
769.157	41850.72
769.492	41731.63
769.828	41649.82
770.164	41338.19
770.5	41273.11
770.836	41414.8
771.171	41034.47
771.507	40890.52
771.842	40669.51
772.178	40756.97
772.513	40535.73
772.849	40319.91
773.184	40272.68
773.519	40167.38
773.855	39856.88
774.19	39891.9
774.525	39794.73
774.86	39660.27
775.195	39390.9
775.53	39301.64
775.865	39059.83
776.2	38964.92
776.535	38823
776.87	38642.67
777.205	38545.27
777.539	38374.2
777.874	38352.28
778.209	38015.34
778.543	37954.78
778.878	37828.45
779.212	37768.12
779.547	37557.05
779.881	37681.79
780.215	37315.47
780.55	37395.92
780.884	37056.27
781.218	36924.98
781.552	36988.7
781.886	36787.13
782.22	36568.6
782.554	36382.16
782.888	36074.6
783.222	36075.28
783.556	35971.33
783.889	35810.2
784.223	35614.5
784.557	35612.02
784.89	35794.38
785.224	35356.2
785.557	35277.56
785.891	35047.28
786.224	35017
786.558	34996.21
786.891	34702.43
787.224	34540.41
787.557	34312.61
787.891	34560.29
788.224	34219.28
788.557	34179.51
788.89	34029.46
789.223	33972.74
789.556	33763.48
789.888	33654.33
790.221	33625.63
790.554	33415.46
790.887	33313.54
791.219	33106.09
791.552	33057.51
791.884	33008.92
792.217	32886.89
792.549	32720.79
792.882	32495.94
793.214	32426.34
793.546	32327.13
793.879	32215.04
794.211	31994.26
794.543	32151.77
794.875	31966.46
795.207	31989.51
795.539	31883.3
795.871	31843.98
796.203	31606.7
796.535	31359.02
796.867	31322.41
797.198	31163.09
797.53	31200.61
797.862	31018.92
798.193	30960.16
798.525	30887.62
798.856	30962.87
799.188	30393.4
799.519	30374.87
799.85	30338.71
800.182	30304.36
800.513	30425.49
800.844	29973.52
801.175	30209.67
801.506	30129
801.837	29928.78
802.168	29753.86
802.499	29818.72
802.83	29612.4
803.161	29476.36
803.491	29422.12
803.822	29602.46
804.153	29321.79
804.483	29164.73
804.814	28982.13
805.145	29001.12
805.475	29088.57
805.805	28894
806.136	28900.1
806.466	28710.28
806.796	28684.74
807.126	28556.16
807.457	28494.24
807.787	28564.74
808.117	28395.26
808.447	28177.63
808.777	28226.67
809.107	28062.61
809.436	27977.41
809.766	27929.51
810.096	27911.65
810.426	27779.23
810.755	27938.09
811.085	27632.79
811.414	27733.58
811.744	27571.1
812.073	27729.74
812.403	27405.23
812.732	27355.06
813.061	27480.03
813.39	27179.69
813.719	27123.43
814.049	27182.18
814.378	27085.91
814.707	26847.73
815.036	26970.89
815.365	26845.47
815.693	26671.23
816.022	26695.41
816.351	26485.7
816.68	26399.83
817.008	26512.59
817.337	26229.89
817.665	26323.22
817.994	26314.86
818.322	26357.34
818.651	26155.32
818.979	26042.78
819.307	26098.59
819.636	25956.68
819.964	25926.62
820.292	26023.57
820.62	25917.58
820.948	25926.39
821.276	26093.85
821.604	25918.26
821.932	25935.21
822.259	25845.49
822.587	25947.86
822.915	25851.37
823.243	25827.41
823.57	25771.14
823.898	25959.84
824.225	25796.23
824.553	25838.04
824.88	25906.06
825.207	25958.94
825.535	25794.65
825.862	26013.17
826.189	25726.4
826.516	25946.28
826.843	25923.23
827.17	26102.89
827.497	25934.76
827.824	25949.44
828.151	25889.79
828.478	25767.75
828.805	26014.53
829.131	25972.95
829.458	25888.88
829.785	25676.91
830.111	25947.18
830.438	25938.37
830.764	25837.13
831.09	25788.77
831.417	25773.4
831.743	25852.95
832.069	25837.13
832.395	25714.65
832.722	25849.79
833.048	25692.05
833.374	25815.21
833.7	25638.04
834.026	25728.21
834.351	25661.77
834.677	25784.48
835.003	25741.77
835.329	25640.3
835.654	25668.32
835.98	25419.97
836.306	25616.12
836.631	25527.08
836.956	25738.15
837.282	25532.51
837.607	25426.97
837.932	25375
838.258	25423.36
838.583	25363.47
838.908	25224.72
839.233	25356.69
839.558	25298.84
839.883	25203.48
840.208	24981.56
840.533	25032.86
840.858	25020.2
841.182	25072.41
841.507	24883.26
841.832	24796.71
842.156	24893.88
842.481	24803.26
842.805	24784.05
843.13	24662.02
843.454	24749.02
843.778	24521.69
844.103	24582.93
844.427	24342.48
844.751	24542.02
845.075	24477.39
845.399	24341.35
845.723	24226.1
846.047	24314.23
846.371	23972.1
846.695	23936.16
847.019	23961.02
847.343	23760.35
847.666	23835.15
847.99	23622.73
848.313	23482.84
848.637	23489.17
848.96	23352
849.284	23393.81
849.607	23079.69
849.931	23095.06
850.254	22997.43
850.577	22905.68
850.9	22624.33
851.223	22641.74
851.546	22597.67
851.869	22463.21
852.192	22564.22
852.515	22318.81
852.838	22212.37
853.161	22146.83
853.483	22036.55
853.806	22051.69
854.129	21910.68
854.451	21978.02
854.774	21858.25
855.096	21714.53
855.419	21676.79
855.741	21639.95
856.063	21577.36
856.385	21390.24
856.708	21378.49
857.03	21409.45
857.352	21319.28
857.674	21229.79
857.996	21157.25
858.318	20970.37
858.64	20986.41
858.961	20963.81
859.283	20912.29
859.605	20798.17
859.926	20855.57
860.248	20718.85
860.57	20724.72
860.891	20651.05
861.212	20642.01
861.534	20499.64
861.855	20495.35
862.176	20488.12
862.498	20447.22
862.819	20487.22
863.14	20361.34
863.461	20366.54
863.782	20281.35
864.103	20272.31
864.424	20186.21
864.745	20270.27
865.065	20031.63
865.386	19996.38
865.707	20061.69
866.027	20050.16
866.348	19971.75
866.668	19978.98
866.989	19904.41
867.309	19781.7
867.63	19781.92
867.95	19899.89
868.27	19801.13
868.59	19649.27
868.91	19633.23
869.23	19683.85
869.55	19535.38
869.87	19679.55
870.19	19480.46
870.51	19603.4
870.83	19527.01
871.15	19467.58
871.469	19424.19
871.789	19426.68
872.109	19390.97
872.428	19255.61
872.748	19361.6
873.067	19298.09
873.386	19237.3
873.706	19204.54
874.025	19160.02
874.344	19103.07
874.663	19120.47
874.982	19090.64
875.301	19037.31
875.62	18933.58
875.939	18841.61
876.258	18913.25
876.577	18769.29
876.896	18868.05
877.214	18777.43
877.533	18842.74
877.852	18760.93
878.17	18820.59
878.489	18717.09
878.807	18609.75
879.125	18656.98
879.444	18660.37
879.762	18624.67
880.08	18709.41
880.398	18590.99
880.716	18451.34
881.034	18345.12
881.352	18424.9
881.67	18341.28
881.988	18336.09
882.306	18218.12
882.624	18325.24
882.941	18222.42
883.259	18218.57
883.577	18078.47
883.894	18151.23
884.212	18056.77
884.529	17943.33
884.846	17979.71
885.164	17833.05
885.481	17787.17
885.798	17895.87
886.115	17707.63
886.432	17884.57
886.75	17778.59
887.067	17748.3
887.383	17615.2
887.7	17659.04
888.017	17491.59
888.334	17429.44
888.651	17453.85
888.967	17427.86
889.284	17374.3
889.6	17286.62
889.917	17273.06
890.233	17259.28
890.55	17137.7
890.866	17151.03
891.182	17124.59
891.498	16980.87
891.815	16905.16
892.131	16893.19
892.447	16845.96
892.763	16796.69
893.079	16774.54
893.395	16742.91
893.71	16826.97
894.026	16666.3
894.342	16633.76
894.657	16459.52
894.973	16529.81
895.289	16483.25
895.604	16461.11
895.92	16371.17
896.235	16310.15
896.55	16180.44
896.865	16131.85
897.181	16126.43
897.496	16168.46
897.811	15993.77
898.126	15955.36
898.441	15900.67
898.756	15860.44
899.071	15777.28
899.386	15829.03
899.7	15660.68
900.015	15628.81
900.33	15427.46
900.644	15505.65
900.959	15457.52
901.273	15381.59
901.588	15397.18
901.902	15267.47
902.216	15248.48
902.531	15188.15
902.845	15220.01
903.159	14967.36
903.473	15034.7
903.787	14976.63
904.101	14938.66
904.415	14906.57
904.729	14836.06
905.042	14756.97
905.356	14733.92
905.67	14660.93
905.984	14648.72
906.297	14601.95
906.611	14449.41
906.924	14444.66
907.237	14415.28
907.551	14393.82
907.864	14190.43
908.177	14250.32
908.491	14165.12
908.804	14055.07
909.117	14032.47
909.43	13930.78
909.743	13956.77
910.056	13944.11
910.368	13826.37
910.681	13772.59
910.994	13713.83
911.307	13584.12
911.619	13526.95
911.932	13516.1
912.244	13395.42
912.557	13389.32
912.869	13395.2
913.181	13268.42
913.494	13297.8
913.806	13143
914.118	13103
914.43	13088.54
914.742	13077.01
915.054	13015.32
915.366	12944.36
915.678	12827.08
915.99	12805.61
916.302	12690.13
916.613	12749.34
916.925	12734.43
917.236	12663.69
917.548	12527.42
917.859	12618.27
918.171	12401.55
918.482	12367.88
918.794	12353.87
919.105	12311.39
919.416	12209.69
919.727	12150.03
920.038	12161.56
920.349	12064.16
920.66	12061.22
920.971	11956.82
921.282	11982.58
921.593	11928.34
921.903	11806.31
922.214	11770.16
922.525	11700.1
922.835	11620.56
923.146	11602.25
923.456	11513.89
923.767	11475.7
924.077	11438.64
924.387	11441.58
924.697	11307.8
925.008	11335.82
925.318	11249.04
925.628	11240.45
925.938	11163.39
926.248	11049.72
926.558	11001.36
926.867	11006.11
927.177	10969.27
927.487	10957.3
927.796	10887.47
928.106	10810.41
928.416	10838.66
928.725	10775.38
929.034	10712.11
929.344	10717.08
929.653	10640.24
929.962	10541.49
930.271	10521.83
930.581	10527.03
930.89	10359.12
931.199	10354.15
931.508	10423.98
931.817	10273.92
932.125	10257.88
932.434	10257.43
932.743	10092.23
933.051	10074.83
933.36	10077.55
933.669	10032.8
933.977	9945.57
934.286	9964.33
934.594	9897.44
934.902	9823.77
935.21	9782.19
935.519	9764.79
935.827	9771.34
936.135	9585.81
936.443	9519.37
936.751	9575.19
937.059	9542.42
937.367	9528.63
937.674	9512.81
937.982	9442.08
938.29	9423.1
938.597	9398.02
938.905	9283.89
939.213	9287.28
939.52	9192.15
939.827	9199.38
940.135	9217.46
940.442	9134.97
940.749	9089.55
941.056	9065.37
941.363	9018.36
941.67	8990.34
941.977	8906.96
942.284	8843.91
942.591	8854.53
942.898	8784.7
943.205	8810.23
943.511	8753.29
943.818	8711.25
944.125	8633.29
944.431	8616.34
944.738	8642.1
945.044	8533.86
945.35	8463.58
945.657	8438.27
945.963	8412.28
946.269	8396.01
946.575	8323.02
946.881	8268.1
947.187	8272.17
947.493	8234.43
947.799	8211.61
948.105	8155.79
948.41	8072.85
948.716	8096.81
949.022	8106.98
949.327	8062.91
949.633	7950.37
949.938	7953.08
950.244	7960.54
950.549	7862.69
950.854	7826.08
951.16	7786.98
951.465	7727.33
951.77	7739.53
952.075	7715.12
952.38	7635.58
952.685	7627.89
952.99	7542.25
953.294	7553.32
953.599	7504.05
953.904	7442.59
954.209	7385.19
954.513	7413.66
954.818	7417.05
955.122	7337.05
955.426	7361.23
955.731	7279.43
956.035	7263.61
956.339	7242.37
956.643	7211.86
956.948	7163.95
957.252	7117.17
957.556	7123.05
957.86	7052.54
958.163	7036.04
958.467	6948.81
958.771	6972.09
959.075	7001.92
959.378	6837.4
959.682	6934.8
959.985	6826.56
960.289	6799.89
960.592	6750.85
960.896	6743.85
961.199	6681.02
961.502	6708.82
961.805	6688.48
962.108	6642.16
962.411	6505.89
962.714	6559.67
963.017	6552.67
963.32	6495.49
963.623	6495.49
963.926	6451.43
964.228	6471.09
964.531	6442.61
964.833	6366.68
965.136	6365.33
965.438	6288.27
965.741	6248.27
966.043	6246.01
966.345	6130.76
966.648	6215.05
966.95	6172.56
967.252	6148.16
967.554	6149.51
967.856	6115.16
968.158	6072.68
968.46	6028.16
968.761	6046.92
969.063	5975.96
969.365	5967.37
969.666	5919.46
969.968	5833.14
970.269	5865.68
970.571	5867.49
970.872	5825
971.174	5734.61
971.475	5774.16
971.776	5762.63
972.077	5694.61
972.378	5656.42
972.679	5623.88
972.98	5678.34
973.281	5587.95
973.582	5517.44
973.883	5559.47
974.183	5481.51
974.484	5501.39
974.785	5456.65
975.085	5397.67
975.386	5437.67
975.686	5387.5
975.986	5340.72
976.287	5398.8
976.587	5296.2
976.887	5274.96
977.187	5272.25
977.487	5288.07
977.787	5195.41
978.087	5208.75
978.387	5164.68
978.687	5118.35
978.987	5173.04
979.286	5111.8
979.586	5120.84
979.885	5053.72
980.185	5002.2
980.484	5014.18
980.784	5041.07
981.083	4969.66
981.382	4974.63
981.682	4951.13
981.981	4889.89
982.28	4877.23
982.579	4851.02
982.878	4859.6
983.177	4821.64
983.475	4819.15
983.774	4761.08
984.073	4745.71
984.372	4705.03
984.67	4662.32
984.969	4664.35
985.267	4653.73
985.566	4669.78
985.864	4567.18
986.162	4539.84
986.461	4560.4
986.759	4510.91
987.057	4538.26
987.355	4483.57
987.653	4489.44
987.951	4455.32
988.249	4437.47
988.547	4384.81
988.844	4357.7
989.142	4359.96
989.44	4348.88
989.737	4335.32
990.035	4332.39
990.332	4313.63
990.63	4310.47
990.927	4272.73
991.224	4244.7
991.521	4209.23
991.819	4172.84
992.116	4134.43
992.413	4177.14
992.71	4144.59
993.006	4137.36
993.303	4105.95
993.6	4048.55
993.897	4059.17
994.193	4091.94
994.49	3999.29
994.787	3944.37
995.083	3987.08
995.379	3957.93
995.676	3893.53
995.972	3916.58
996.268	3877.71
996.565	3848.56
996.861	3884.71
997.157	3805.62
997.453	3793.42
997.749	3768.79
998.044	3753.19
998.34	3781.67
998.636	3720.65
998.932	3701.67
999.227	3683.82
999.523	3666.19
999.818	3617.38
1000.114	3632.29
1000.409	3635.23
1000.704	3565.63
1001	3560.2
1001.295	3554.33
1001.59	3513.65
1001.885	3522.01
1002.18	3464.61
1002.475	3469.81
1002.77	3463.26
1003.065	3435.23
1003.359	3409.47
1003.654	3390.49
1003.949	3360.43
1004.243	3346.2
1004.538	3344.62
1004.832	3355.01
1005.127	3302.81
1005.421	3274.56
1005.715	3259.42
1006.009	3277.95
1006.304	3196.14
1006.598	3227.56
1006.892	3188.91
1007.186	3138.29
1007.48	3129.25
1007.773	3103.72
1008.067	3124.06
1008.361	3080.44
1008.655	3077.28
1008.948	3089.25
1009.242	3013.32
1009.535	3011.06
1009.829	2976.94
1010.122	2968.13
1010.415	2982.37
1010.708	2964.51
1011.001	2902.82
1011.295	2875.48
1011.588	2880.45
1011.881	2863.72
1012.173	2815.14
1012.466	2800
1012.759	2800.22
1013.052	2815.59
1013.344	2783.73
1013.637	2798.64
1013.93	2762.26
1014.222	2703.5
1014.514	2700.34
1014.807	2691.07
1015.099	2694.01
1015.391	2655.82
1015.683	2623.5
1015.976	2625.31
1016.268	2589.16
1016.56	2601.58
1016.851	2539.89
1017.143	2530.85
1017.435	2550.74
1017.727	2494.24
1018.018	2508.93
1018.31	2438.65
1018.602	2461.7
1018.893	2443.85
1019.185	2416.96
1019.476	2398.2
1019.767	2419.44
1020.058	2372.21
1020.35	2347.13
1020.641	2327.92
1020.932	2333.34
1021.223	2329.27
1021.514	2312.33
1021.804	2284.98
1022.095	2279.56
1022.386	2263.06
1022.677	2220.8
1022.967	2226.23
1023.258	2211.09
1023.548	2196.17
1023.839	2166.12
1024.129	2151.88
1024.419	2146.68
1024.709	2143.29
1025	2116.63
1025.29	2090.86
1025.58	2074.59
1025.87	2044.08
1026.16	2034.37
1026.449	2030.3
1026.739	1989.17
1027.029	2014.25
1027.319	2011.77
1027.608	1954.14
1027.898	1971.32
1028.187	1958.44
1028.477	1958.89
1028.766	1947.14
1029.055	1890.19
1029.344	1876.63
1029.634	1888.83
1029.923	1843.86
1030.212	1849.97
1030.501	1857.2
1030.79	1806.8
1031.078	1799.57
1031.367	1803.41
1031.656	1761.61
1031.945	1772.68
1032.233	1768.39
1032.522	1759.57
1032.81	1718.9
1033.099	1732.68
1033.387	1679.35
1033.675	1712.12
1033.963	1685.68
1034.251	1676.41
1034.54	1667.37
1034.828	1626.92
1035.116	1633.7
1035.403	1628.95
1035.691	1621.72
1035.979	1614.94
1036.267	1556.41
1036.554	1566.58
1036.842	1572.91
1037.129	1550.76
1037.417	1574.94
1037.704	1528.62
1037.992	1519.58
1038.279	1522.52
1038.566	1466.92
1038.853	1466.92
1039.14	1466.92
