Data from 7415_FLMS001491_007.txt Node
Date: Thu Apr 19 16:29:54 BST 2018
User: hsy
Spectrometer: FLMS00149
Trigger mode: 0
Integration Time (sec): 1.000000E-2
Scans to average: 10
Electric dark correction enabled: true
Nonlinearity correction enabled: false
Boxcar width: 0
XAxis mode: Wavelengths
Number of Pixels in Spectrum: 2048
>>>>>Begin Spectral Data<<<<<
341.393	-7.58
341.776	-7.58
342.16	-7.58
342.543	-54.36
342.927	-69.28
343.31	-51.88
343.693	-70.86
344.077	-60.69
344.46	-60.01
344.843	-51.2
345.226	-40.8
345.61	-17.75
345.993	-9.39
346.376	-13.69
346.759	20.66
347.142	5.07
347.525	47.33
347.908	68.12
348.291	66.76
348.674	74.9
349.057	93.43
349.44	130.26
349.823	134.11
350.206	172.52
350.588	240.32
350.971	239.41
351.354	272.63
351.737	276.25
352.119	265.63
352.502	302.92
352.884	306.98
353.267	316.7
353.65	348.56
354.032	332.52
354.414	328.9
354.797	361.22
355.179	344.5
355.562	368.9
355.944	363.93
356.326	381.11
356.709	375.46
357.091	358.51
357.473	382.91
357.855	376.36
358.238	383.37
358.62	392.86
359.002	389.02
359.384	403.7
359.766	381.33
360.148	395.79
360.53	372.52
360.912	378.85
361.294	368.9
361.676	382.46
362.057	388.34
362.439	361.45
362.821	362.12
363.203	373.87
363.584	376.36
363.966	390.37
364.348	367.09
364.729	361.22
365.111	385.4
365.493	367.55
365.874	385.17
366.256	374.78
366.637	367.55
367.019	365.74
367.4	362.12
367.781	357.6
368.163	370.94
368.544	368.45
368.925	356.7
369.306	355.12
369.688	351.5
370.069	410.94
370.45	386.98
370.831	370.48
371.212	376.59
371.593	376.59
371.974	395.12
372.355	382.69
372.736	385.63
373.117	401.22
373.498	371.61
373.879	396.02
374.26	377.04
374.641	362.8
375.021	400.99
375.402	385.17
375.783	404.61
376.163	421.33
376.544	379.52
376.925	391.95
377.305	406.42
377.686	381.56
378.066	416.59
378.447	386.53
378.827	412.52
379.208	391.5
379.588	386.98
379.968	416.81
380.349	393.08
380.729	407.09
381.109	434.89
381.489	412.97
381.87	409.81
382.25	446.64
382.63	433.76
383.01	425.62
383.39	418.62
383.77	432.18
384.15	416.59
384.53	442.12
384.91	450.48
385.29	437.15
385.67	436.25
386.049	451.84
386.429	447.77
386.809	457.04
387.189	460.88
387.568	460.88
387.948	464.27
388.328	448.67
388.707	478.96
389.087	475.34
389.466	454.32
389.846	467.43
390.225	454.32
390.605	506.3
390.984	480.99
391.363	487.32
391.743	480.54
392.122	501.55
392.501	520.76
392.881	491.84
393.26	532.29
393.639	515.11
394.018	509.46
394.397	520.76
394.776	506.98
395.155	521.22
395.534	523.02
395.913	551.95
396.292	538.39
396.671	548.33
397.05	551.04
397.429	543.59
397.808	569.35
398.186	549.46
398.565	549.46
398.944	553.76
399.323	580.87
399.701	560.54
400.08	573.64
400.458	577.48
400.837	598.05
401.215	585.39
401.594	616.13
401.972	604.6
402.351	616.13
402.729	612.74
403.107	622.46
403.486	601.66
403.864	636.01
404.242	615.45
404.62	636.47
404.999	635.11
405.377	644.6
405.755	643.02
406.133	674.21
406.511	685.05
406.889	680.76
407.267	695.9
407.645	697.26
408.023	715.33
408.401	704.71
408.779	717.14
409.156	738.61
409.534	772.51
409.912	758.72
410.29	779.51
410.667	782.45
411.045	787.65
411.422	804.37
411.8	786.52
412.178	812.51
412.555	827.42
412.933	878.27
413.31	857.03
413.687	865.84
414.065	858.16
414.442	890.24
414.819	906.06
415.197	935.44
415.574	938.38
415.951	939.28
416.328	972.95
416.705	947.64
417.082	960.98
417.46	960.3
417.837	1001.65
418.214	1003.91
418.591	1001.43
418.967	1010.69
419.344	1012.95
419.721	1013.41
420.098	1019.73
420.475	1044.14
420.852	1054.08
421.228	1058.6
421.605	1092.73
421.982	1080.75
422.358	1089.56
422.735	1099.5
423.111	1111.93
423.488	1144.02
423.864	1122.1
424.241	1159.16
424.617	1163.91
424.994	1177.7
425.37	1169.33
425.746	1177.92
426.123	1210.24
426.499	1205.04
426.875	1243.91
427.251	1234.42
427.627	1273.29
428.003	1258.6
428.379	1282.78
428.756	1311.25
429.132	1301.76
429.507	1360.52
429.883	1345.37
430.259	1392.6
430.635	1377.01
431.011	1388.99
431.387	1443.22
431.763	1421.76
432.138	1474.86
432.514	1472.83
432.89	1516.44
433.265	1516.44
433.641	1511.25
434.016	1548.08
434.392	1538.14
434.767	1609.55
435.143	1606.38
435.518	1604.8
435.894	1635.76
436.269	1657.68
436.644	1664.24
437.02	1681.41
437.395	1698.81
437.77	1699.94
438.145	1753.05
438.52	1722.54
438.895	1770.22
439.271	1753.5
439.646	1798.02
440.021	1821.97
440.395	1852.25
440.77	1824.01
441.145	1840.73
441.52	1889.77
441.895	1877.56
442.27	1887.51
442.645	1863.55
443.019	1921.18
443.394	1925.47
443.769	1899.94
444.143	1915.98
444.518	1925.25
444.892	1947.84
445.267	1951.23
445.641	1948.52
446.016	2013.61
446.39	2042.31
446.764	2012.93
447.139	2019.25
447.513	2040.72
447.887	2050.21
448.262	2048.63
448.636	2075.75
449.01	2109.65
449.384	2133.6
449.758	2109.87
450.132	2161.62
450.506	2197.78
450.88	2198.01
451.254	2201.85
451.628	2232.36
452.002	2240.27
452.376	2248.4
452.75	2299.02
453.123	2293.82
453.497	2312.35
453.871	2317.55
454.244	2412.92
454.618	2411.11
454.992	2473.03
455.365	2460.37
455.739	2500.15
456.112	2561.16
456.486	2544.66
456.859	2590.54
457.232	2664.66
457.606	2635.06
457.979	2683.64
458.352	2715.51
458.725	2734.49
459.099	2791.89
459.472	2814.04
459.845	2852.68
460.218	2834.15
460.591	2875.96
460.964	2923.64
461.337	2996.86
461.71	3028.49
462.083	3064.43
462.456	3043.86
462.829	3079.57
463.201	3146.23
463.574	3124.08
463.947	3168.38
464.32	3205.89
464.692	3243.63
465.065	3277.75
465.438	3324.31
465.81	3370.86
466.183	3382.61
466.555	3462.38
466.928	3468.48
467.3	3450.63
467.672	3520.46
468.045	3623.28
468.417	3626.44
468.789	3664.64
469.161	3665.99
469.534	3723.39
469.906	3782.82
470.278	3817.17
470.65	3842.26
471.022	3895.59
471.394	4002.25
471.766	4030.95
472.138	4040.9
472.51	4123.38
472.882	4221.23
473.253	4275.69
473.625	4269.37
473.997	4391.17
474.369	4377.38
474.74	4463.03
475.112	4540.54
475.484	4582.8
475.855	4653.31
476.227	4679.98
476.598	4815.79
476.97	4845.62
477.341	4923.13
477.713	5027.09
478.084	5081.32
478.455	5167.65
478.827	5252.39
479.198	5373.74
479.569	5426.62
479.94	5529.22
480.311	5635.88
480.682	5688.54
481.053	5813.28
481.424	5886.27
481.795	5975.53
482.166	6084.46
482.537	6140.95
482.908	6286.26
483.279	6416.43
483.65	6551.11
484.021	6641.73
484.391	6708.85
484.762	6804.67
485.133	6920.82
485.503	7007.37
485.874	7173.92
486.244	7178.89
486.615	7405.55
486.985	7486.23
487.356	7603.06
487.726	7661.37
488.097	7927.35
488.467	7911.76
488.837	8168.7
489.207	8238.3
489.578	8423.38
489.948	8511.51
490.318	8623.6
490.688	8680.77
491.058	8864.27
491.428	9011.16
491.798	9093.42
492.168	9258.84
492.538	9348.1
492.908	9494.09
493.278	9631.26
493.648	9724.36
494.017	9823.12
494.387	9973.17
494.757	10170.23
495.126	10309.88
495.496	10320.05
495.866	10482.54
496.235	10544.45
496.605	10746.48
496.974	10858.34
497.344	10877.1
497.713	11141.5
498.082	11180.6
498.452	11317.99
498.821	11426.92
499.19	11494.71
499.559	11632.11
499.928	11753.01
500.298	11838.88
500.667	12071.87
501.036	12056.96
501.405	12224.86
501.774	12270.28
502.143	12460.79
502.512	12519.32
502.88	12631.86
503.249	12688.58
503.618	12856.94
503.987	12921.34
504.356	13091.28
504.724	13187.77
505.093	13265.51
505.462	13369.24
505.83	13432.06
506.199	13518.84
506.567	13767.19
506.936	13765.84
507.304	14014.19
507.672	14110.46
508.041	14140.97
508.409	14310.91
508.777	14511.81
509.145	14527.85
509.514	14632.48
509.882	14761.74
510.25	14755.64
510.618	15025.01
510.986	15018.91
511.354	15206.03
511.722	15393.59
512.09	15512.69
512.458	15511.56
512.826	15711.78
513.193	15746.8
513.561	15877.65
513.929	15909.51
514.297	16168.04
514.664	16185.66
515.032	16344.75
515.4	16404.19
515.767	16525.09
516.135	16703.39
516.502	16606.44
516.869	16931.18
517.237	16993.1
517.604	16955.36
517.972	17242.13
518.339	17335.69
518.706	17489.58
519.073	17544.95
519.44	17651.84
519.808	17942.9
520.175	17895
520.542	18144.25
520.909	18298.83
521.276	18374.31
521.643	18517.58
522.009	18675.09
522.376	18801.86
522.743	18918.25
523.11	19249.76
523.477	19358.01
523.843	19365.01
524.21	19848.84
524.577	19863.76
524.943	19985.79
525.31	20074.6
525.676	20299.23
526.043	20485.44
526.409	20636.84
526.776	20804.52
527.142	20850.62
527.508	21005.42
527.874	21199.54
528.241	21274.34
528.607	21418.07
528.973	21665.74
529.339	21700.09
529.705	22004.94
530.071	21997.94
530.437	22301.89
530.803	22336.91
531.169	22538.94
531.535	22667.3
531.901	22729.67
532.267	22840.85
532.632	23039.49
532.998	23130.11
533.364	23343.89
533.73	23361.52
534.095	23636.77
534.461	23627.5
534.826	23756.76
535.192	23919.92
535.557	24082.86
535.923	24051.44
536.288	24268.61
536.653	24296.41
537.019	24300.25
537.384	24397.65
537.749	24556.06
538.114	24670.18
538.479	24530.75
538.845	24707.47
539.21	24748.37
539.575	24902.27
539.94	25032.21
540.305	25141.58
540.67	25144.97
541.034	25268.14
541.399	25439.88
541.764	25402.59
542.129	25508.13
542.494	25637.16
542.858	25733.43
543.223	25593.32
543.587	25794
543.952	25794.67
544.316	25917.38
544.681	25989.25
545.045	26181.78
545.41	26278.05
545.774	26129.81
546.138	26391.95
546.503	26397.82
546.867	26439.63
547.231	26537.71
547.595	26657.93
547.959	26699.28
548.324	26737.02
548.688	26788.1
549.052	26859.96
549.416	26863.57
549.779	27008.2
550.143	27029.9
550.507	27242.55
550.871	27241.42
551.235	27278.25
551.599	27454.74
551.962	27591.46
552.326	27605.7
552.689	27604.34
553.053	27628.07
553.417	27722.76
553.78	28002.98
554.143	27986.26
554.507	28142.64
554.87	28261.28
555.234	28344.89
555.597	28347.6
555.96	28449.75
556.323	28625.33
556.686	28698.55
557.05	28823.52
557.413	28962.5
557.776	28961.15
558.139	29117.53
558.502	29181.03
558.865	29240.91
559.228	29618.08
559.59	29653.33
559.953	29610.85
560.316	29943.04
560.679	29975.36
561.041	30109.59
561.404	30295.35
561.767	30545.74
562.129	30356.59
562.492	30810.14
562.854	30719.07
563.217	30747.54
563.579	30926.07
563.941	31001.77
564.304	31225.72
564.666	31444.92
565.028	31478.59
565.39	31647.18
565.753	31907.06
566.115	31840.39
566.477	32095.3
566.839	32325.58
567.201	32512.46
567.563	32505.91
567.925	32615.51
568.287	32913.58
568.648	32982.51
569.01	33161.03
569.372	33469.28
569.734	33372.78
570.095	33602.61
570.457	33812.54
570.819	33928.02
571.18	33981.58
571.542	34242.14
571.903	34303.15
572.265	34533.43
572.626	34824.95
572.987	34848.9
573.349	35029.01
573.71	35124.37
574.071	35405.04
574.432	35517.13
574.794	35771.81
575.155	35820.63
575.516	35902.21
575.877	36155.76
576.238	36243.89
576.599	36551.68
576.96	36716.42
577.32	36787.61
577.681	36932.24
578.042	37317.08
578.403	37455.61
578.763	37533.35
579.124	37430.3
579.485	37955.94
579.845	38095.82
580.206	38168.59
580.566	38197.29
580.927	38565.64
581.287	38870.26
581.648	38724.28
582.008	39178.5
582.368	39370.36
582.728	39618.72
583.089	39626.4
583.449	39872.04
583.809	40120.4
584.169	40473.38
584.529	40624.57
584.889	41037.44
585.249	40902.98
585.609	41040.83
585.969	41601.72
586.329	41573.7
586.688	42002.16
587.048	42267.69
587.408	42383.62
587.768	42628.81
588.127	42908.58
588.487	43108.12
588.846	43770.02
589.206	43577.48
589.565	44006.17
589.925	44447.74
590.284	44388.76
590.643	44807.06
591.003	45127.95
591.362	45609.3
591.721	45754.83
592.08	46039.11
592.44	46442.27
592.799	46520.91
593.158	46865.99
593.517	47042.93
593.876	47436.82
594.235	47605.63
594.593	47817.15
594.952	48095.33
595.311	48227.08
595.67	48566.73
596.029	49046.94
596.387	49333.04
596.746	49720.37
597.104	49726.25
597.463	49945.45
597.822	50141.83
598.18	50221.6
598.538	50562.39
598.897	50956.5
599.255	50939.55
599.613	51441.46
599.972	51507.45
600.33	51742.47
600.688	51811.17
601.046	52191.04
601.404	52503.58
601.762	52484.82
602.12	52774.08
602.478	52993.51
602.836	53150.34
603.194	53093.39
603.552	53303.33
603.91	53380.62
604.268	53701.29
604.625	53799.59
604.983	54027.6
605.341	53977.89
605.698	54258.33
606.056	54654.48
606.413	54560.02
606.771	54906
607.128	54919.56
607.485	54998.43
607.843	55084.75
608.2	55330.85
608.557	55576.04
608.914	55585.3
609.272	55787.11
609.629	56015.58
609.986	56164.05
610.343	56214.21
610.7	56454.43
611.057	56459.41
611.414	56455.34
611.771	56717.93
612.127	56846.97
612.484	56919.73
612.841	57092.16
613.198	57063.46
613.554	57073.85
613.911	57399.27
614.267	57463.9
614.624	57518.13
614.98	57614.18
615.337	57829.09
615.693	57863.21
616.05	57924.9
616.406	58071.34
616.762	58072.02
617.118	58129.87
617.475	58282.18
617.831	58355.4
618.187	58396.3
618.543	58489.86
618.899	58668.16
619.255	58665.9
619.611	58689.18
619.967	58868.83
620.323	58872
620.678	58835.16
621.034	58916.97
621.39	58927.36
621.746	58985.44
622.101	59332.78
622.457	59100.47
622.812	59262.5
623.168	59278.09
623.523	59354.24
623.879	59417.52
624.234	59309.73
624.589	59473.34
624.945	59475.82
625.3	59523.73
625.655	59590.4
626.01	59591.53
626.365	59536.39
626.72	59527.12
627.075	59526.9
627.43	59648.25
627.785	59639.21
628.14	59658.19
628.495	59707.91
628.85	59747.91
629.205	59626.78
629.559	59811.63
629.914	59730.51
630.269	59748.58
630.623	59594.01
630.978	59589.94
631.332	59713.11
631.687	59685.31
632.041	59713.78
632.396	59731.18
632.75	59612.09
633.104	59714.46
633.459	59577.29
633.813	59606.22
634.167	59627.91
634.521	59632.43
634.875	59645.08
635.229	59559.89
635.583	59477.41
635.937	59466.33
636.291	59526.22
636.645	59511.53
636.999	59370.06
637.352	59525.99
637.706	59409.84
638.06	59486.67
638.413	59386.79
638.767	59331.42
639.121	59384.98
639.474	59292.55
639.828	59288.03
640.181	59330.06
640.534	59377.07
640.888	59189.28
641.241	59159.9
641.594	59212.1
641.947	59323.06
642.301	59153.8
642.654	59124.42
643.007	59132.33
643.36	59142.05
643.713	59145.89
644.066	59207.81
644.419	59029.73
644.771	58808.95
645.124	58539.8
645.477	58567.6
645.83	58409.86
646.182	58368.73
646.535	58251.45
646.888	58403.99
647.24	58302.97
647.593	58466.81
647.945	58232.01
648.298	58227.27
648.65	58190.43
649.002	57987.5
649.355	57996.31
649.707	58008.07
650.059	57981.63
650.411	58340.26
650.763	58449.64
651.115	58743.41
651.467	58636.52
651.819	58605.56
652.171	58587.71
652.523	58547.49
652.875	58588.84
653.227	58440.37
653.578	58646.69
653.93	58458
654.282	58316.98
654.633	58394.95
654.985	58423.65
655.337	58445.79
655.688	58327.38
656.039	58425.46
656.391	58221.62
656.742	58249.87
657.094	58210.09
657.445	58313.82
657.796	58299.58
658.147	58143.65
658.498	58258.45
658.849	58243.77
659.2	58146.14
659.551	58102.53
659.902	58217.1
660.253	58081.28
660.604	58165.8
660.955	58083.54
661.306	58174.61
661.656	58024.11
662.007	58030.66
662.358	58061.85
662.708	58000.38
663.059	58070.89
663.409	57812.59
663.76	57973.26
664.11	57980.04
664.461	57960.83
664.811	58016.88
665.161	57992.25
665.511	57924
665.862	57973.26
666.212	58017.78
666.562	58058.01
666.912	57949.99
667.262	57884.68
667.612	57887.39
667.962	57945.02
668.312	57830.44
668.662	58002.42
669.011	57903.44
669.361	57867.28
669.711	57971.46
670.06	57876.32
670.41	57793.61
670.76	57834.06
671.109	57885.36
671.459	57780.27
671.808	57863.44
672.157	57862.08
672.507	57722.65
672.856	57665.02
673.205	57770.11
673.554	57848.75
673.904	57700.05
674.253	57932.81
674.602	57774.62
674.951	57402.21
675.3	57339.38
675.649	57721.07
675.998	57705.7
676.346	57753.38
676.695	57778.47
677.044	57555.87
677.393	57594.74
677.741	57721.52
678.09	57594.06
678.438	57525.82
678.787	57648.75
679.135	57548.64
679.484	57458.93
679.832	57606.04
680.181	57524.69
680.529	57531.24
680.877	57418.48
681.225	57450.79
681.573	57602.88
681.922	57377.57
682.27	57319.27
682.618	57323.34
682.966	57284.47
683.314	57353.85
683.661	57340.74
684.009	57309.78
684.357	57176.9
684.705	57106.62
685.053	57178.71
685.4	57033.63
685.748	56964.7
686.095	56961.99
686.443	56881.32
686.79	56867.53
687.138	56925.16
687.485	56992.27
687.832	56795.44
688.18	56906.63
688.527	56738.49
688.874	56753.18
689.221	56699.85
689.568	56626.63
689.915	56536.47
690.262	56599.51
690.609	56531.04
690.956	56420.54
691.303	56524.49
691.65	56332.63
691.997	56339.18
692.344	56215.12
692.69	56128.79
693.037	56256.25
693.383	55960.66
693.73	56143.48
694.077	55941.23
694.423	55954.79
694.769	55878.18
695.116	55859.2
695.462	55689.26
695.808	55618.98
696.155	55743.04
696.501	55489.49
696.847	55651.29
697.193	55371.52
697.539	55448.81
697.885	55193.22
698.231	55246.78
698.577	55136.05
698.923	55124.07
699.269	54982.16
699.614	54882.72
699.96	54814.25
700.306	54942.84
700.651	54714.82
700.997	54619.68
701.342	54647.48
701.688	54570.87
702.033	54435.73
702.379	54392.79
702.724	54332.46
703.069	54408.39
703.415	54106.92
703.76	54093.14
704.105	54043.88
704.45	54040.49
704.795	53855.86
705.14	53837.78
705.485	53819.93
705.83	53654.28
706.175	53711.68
706.52	53601.4
706.865	53472.82
707.209	53462.87
707.554	53402.76
707.899	53417.45
708.243	53189.89
708.588	53226.04
708.932	53062.88
709.277	53118.48
709.621	52952.38
709.966	52689.56
710.31	52901.53
710.654	52635.33
710.998	52740.63
711.342	52704.02
711.687	52556.23
712.031	52464.71
712.375	52374.77
712.719	52302
713.063	52311.94
713.407	52451.6
713.75	52243.7
714.094	52230.82
714.438	52063.59
714.782	51987.66
715.125	51885.51
715.469	52053.19
715.812	51718.51
716.156	51619.53
716.499	51628.8
716.843	51642.58
717.186	51445.75
717.53	51696.37
717.873	51644.84
718.216	51492.76
718.559	51523.72
718.902	51087.12
719.246	51284.17
719.589	51047.57
719.932	50926.9
720.275	50966.22
720.617	51008.93
720.96	50875.6
721.303	50922.6
721.646	50896.16
721.989	50791.31
722.331	50755.15
722.674	50707.92
723.016	50781.14
723.359	50497.98
723.701	50502.05
724.044	50522.61
724.386	50261.83
724.729	50474.03
725.071	50402.16
725.413	50195.84
725.755	50316.52
726.097	50074.26
726.439	49987.03
726.782	49976.86
727.124	50107.93
727.465	49955.62
727.807	49801.05
728.149	49904.1
728.491	49756.3
728.833	49802.41
729.175	49790.65
729.516	49627.04
729.858	49520.83
730.199	49682.18
730.541	49504.11
730.882	49452.36
731.224	49529.42
731.565	49125.13
731.906	49402.42
732.248	49288.29
732.589	49109.54
732.93	49144.57
733.271	49085.59
733.612	49050.79
733.953	49180.27
734.294	49034.97
734.635	48866.84
734.976	49067.06
735.317	48886.05
735.658	48693.96
735.999	48579.61
736.339	48764.47
736.68	48727.86
737.021	48763.56
737.361	48517.24
737.702	48662.32
738.042	48494.19
738.383	48455.55
738.723	48374.87
739.063	48318.6
739.404	48506.62
739.744	48328.09
740.084	48231.83
740.424	48216.46
740.764	48208.77
741.104	48381.2
741.444	48126.74
741.784	48013.75
742.124	48134.43
742.464	47938.05
742.804	47867.99
743.143	47853.08
743.483	48003.58
743.823	47668
744.162	47683.36
744.502	47747.54
744.841	47539.64
745.181	47696.02
745.52	47625.97
745.86	47665.51
746.199	47497.61
746.538	47372.19
746.877	47429.36
747.216	47380.32
747.556	47363.83
747.895	47340.78
748.234	47140.1
748.573	47103.72
748.911	47160.67
749.25	47028.69
749.589	46884.74
749.928	46928.81
750.267	47052.65
750.605	46836.61
750.944	46795.7
751.283	46622.83
751.621	46795.93
751.96	46403.62
752.298	46363.63
752.636	46441.82
752.975	46186
753.313	46270.75
753.651	46412.44
753.989	46130.19
754.327	46122.05
754.666	45692.23
755.004	46045.22
755.342	45926.57
755.679	45874.37
756.017	45497.89
756.355	45742.4
756.693	45472.58
757.031	45473.48
757.368	45383.31
757.706	45324.1
758.044	45203.2
758.381	45178.8
758.719	44980.16
759.056	45041.17
759.394	44744.91
759.731	44576.33
760.068	44493.17
760.405	44619.26
760.743	44222.89
761.08	44320.74
761.417	44136.57
761.754	43960.98
762.091	43968.43
762.428	43832.62
762.765	43659.29
763.102	43715.11
763.438	43400.99
763.775	43280.99
764.112	43286.64
764.449	43264.05
764.785	43080.77
765.122	42877.84
765.458	42621.35
765.795	42743.61
766.131	42749.71
766.467	42345.43
766.804	42240.34
767.14	42070.63
767.476	41919.22
767.812	41938.88
768.148	41928.04
768.485	41577.99
768.821	41426.35
769.157	41260.71
769.492	41212.35
769.828	41125.57
770.164	40932.58
770.5	40779.37
770.836	40746.15
771.171	40505.25
771.507	40421.18
771.842	40110.23
772.178	40146.39
772.513	39959.95
772.849	39875.66
773.184	39826.4
773.519	39698.72
773.855	39422.11
774.19	39327.2
774.525	39190.71
774.86	39170.59
775.195	38893.99
775.53	38783.49
775.865	38490.84
776.2	38328.13
776.535	38105.99
776.87	38186.21
777.205	37901.7
777.539	37743.29
777.874	37758.2
778.209	37332.68
778.543	37552.78
778.878	37246.35
779.212	37209.97
779.547	36916.64
779.881	36945.34
780.215	36739.47
780.55	36804.55
780.884	36446.15
781.218	36451.34
781.552	36468.97
781.886	36222.88
782.22	36064.01
782.554	35767.07
782.888	35636.22
783.222	35499.28
783.556	35266.52
783.889	35153.07
784.223	35031.04
784.557	34943.13
784.89	35080.53
785.224	34805.06
785.557	34487.78
785.891	34469.93
786.224	34402.13
786.558	34258.86
786.891	34163.04
787.224	34016.83
787.557	33772.32
787.891	33797.63
788.224	33545.66
788.557	33577.3
788.89	33539.78
789.223	33374.14
789.556	33107.93
789.888	33110.64
790.221	33070.87
790.554	32869.52
790.887	32793.59
791.219	32557.89
791.552	32612.12
791.884	32319.48
792.217	32313.15
792.549	32169.2
792.882	31960.61
793.214	31833.39
793.546	31856.66
793.879	31700.28
794.211	31484.47
794.543	31656.89
794.875	31458.93
795.207	31374.87
795.539	31327.41
795.871	31254.64
796.203	31104.14
796.535	30927.87
796.867	30826.18
797.198	30671.16
797.53	30755.45
797.862	30512.06
798.193	30564.04
798.525	30185.07
798.856	30409.47
799.188	30045.41
799.519	29904.17
799.85	29838.86
800.182	29807.22
800.513	29835.47
800.844	29513.67
801.175	29673.44
801.506	29644.52
801.837	29489.94
802.168	29360.68
802.499	29401.13
802.83	29142.84
803.161	29076.4
803.491	29004.53
803.822	29005.89
804.153	28825.56
804.483	28612.68
804.814	28581.72
805.145	28624.88
805.475	28558.44
805.805	28471.21
806.136	28480.71
806.466	28310.99
806.796	28186.7
807.126	28066.03
807.457	28018.35
807.787	28044.56
808.117	27874.85
808.447	27751.23
808.777	27901.06
809.107	27534.97
809.436	27617.45
809.766	27522.77
810.096	27450.68
810.426	27349.44
810.755	27520.05
811.085	27310.57
811.414	27245.03
811.744	27113.51
812.073	27164.36
812.403	26945.83
812.732	26812.95
813.061	26981.76
813.39	26666.52
813.719	26662.67
814.049	26747.64
814.378	26657.7
814.707	26494.54
815.036	26574.09
815.365	26288.22
815.693	26086.19
816.022	26203.93
816.351	26199.18
816.68	25999.87
817.008	26047.32
817.337	25933.2
817.665	25793.77
817.994	25819.08
818.322	25876.03
818.651	25789.25
818.979	25705.86
819.307	25748.35
819.636	25565.08
819.964	25499.09
820.292	25515.81
820.62	25417.74
820.948	25442.37
821.276	25609.37
821.604	25438.3
821.932	25582.7
822.259	25460.22
822.587	25471.75
822.915	25360.11
823.243	25452.99
823.57	25354.01
823.898	25495.93
824.225	25363.73
824.553	25276.5
824.88	25365.76
825.207	25485.53
825.535	25390.39
825.862	25422.71
826.189	25403.95
826.516	25618.63
826.843	25461.58
827.17	25473.1
827.497	25419.77
827.824	25472.42
828.151	25506.09
828.478	25326.44
828.805	25547.68
829.131	25539.99
829.458	25584.96
829.785	25302.03
830.111	25474.01
830.438	25601.69
830.764	25442.37
831.09	25431.52
831.417	25281.92
831.743	25550.84
832.069	25382.93
832.395	25302.26
832.722	25401.46
833.048	25216.61
833.374	25458.64
833.7	25324.18
834.026	25278.53
834.351	25283.5
834.677	25302.03
835.003	25309.26
835.329	25339.09
835.654	25201.47
835.98	25002.61
836.306	25205.76
836.631	25129.38
836.956	25182.04
837.282	25032.21
837.607	24990.63
837.932	24975.49
838.258	25024.98
838.583	25042.38
838.908	24943.17
839.233	24946.56
839.558	24879.9
839.883	24794.25
840.208	24581.6
840.533	24637.19
840.858	24803.97
841.182	24746.57
841.507	24663.18
841.832	24538.21
842.156	24605.1
842.481	24486.23
842.805	24424.54
843.13	24373.47
843.454	24366.92
843.778	24402.85
844.103	24126.02
844.427	24168.05
844.751	24226.35
845.075	24109.75
845.399	23955.18
845.723	23871.34
846.047	23916.08
846.371	23795.86
846.695	23682.87
847.019	23634.96
847.343	23366.49
847.666	23431.35
847.99	23281.07
848.313	23229.32
848.637	23124.69
848.96	23139.83
849.284	23061.19
849.607	22843.57
849.931	22854.41
850.254	22651.03
850.577	22541.43
850.9	22301.43
851.223	22368.1
851.546	22283.81
851.869	22110.93
852.192	22203.36
852.515	22046.52
852.838	21954.55
853.161	21936.02
853.483	21785.51
853.806	21704.84
854.129	21578.74
854.451	21549.36
854.774	21365.19
855.096	21427.78
855.419	21260.33
855.741	21370.16
856.063	21223.27
856.385	21201.8
856.708	21035.93
857.03	20971.98
857.352	20983.73
857.674	20873.45
857.996	20804.3
858.318	20770.17
858.64	20835.26
858.961	20730.18
859.283	20590.07
859.605	20514.81
859.926	20475.49
860.248	20419.22
860.57	20348.26
860.891	20307.14
861.212	20267.36
861.534	20153.92
861.855	20034.15
862.176	20076.41
862.498	20131.77
862.819	20117.54
863.14	19922.51
863.461	19969.07
863.782	19910.31
864.103	19892.91
864.424	19910.76
864.745	19895.39
865.065	19805.68
865.386	19650.43
865.707	19717.32
866.027	19720.71
866.348	19742.18
866.668	19558
866.989	19593.03
867.309	19449.08
867.63	19381.51
867.95	19424.9
868.27	19326.6
868.59	19496.08
868.91	19214.96
869.23	19339.03
869.55	19254.28
869.87	19342.19
870.19	19140.16
870.51	19191.91
870.83	19158.24
871.15	19045.7
871.469	19133.61
871.789	19042.76
872.109	19136.77
872.428	18981.29
872.748	19071.24
873.067	18980.39
873.386	18921.18
873.706	18939.94
874.025	18838.7
874.344	18762.32
874.663	18802.99
874.982	18777.01
875.301	18735.43
875.62	18646.61
875.939	18582.89
876.258	18666.95
876.577	18566.84
876.896	18619.5
877.214	18558.71
877.533	18469.67
877.852	18541.53
878.17	18482.78
878.489	18434.42
878.807	18373.63
879.125	18388.09
879.444	18382.89
879.762	18241.88
880.08	18244.14
880.398	18177.25
880.716	18189.23
881.034	18163.46
881.352	18118.27
881.67	18088.21
881.988	18026.52
882.306	18046.86
882.624	17963.02
882.941	17896.8
883.259	17833.98
883.577	17863.81
883.894	17786.3
884.212	17682.12
884.529	17770.48
884.846	17652.74
885.164	17625.4
885.481	17546.3
885.798	17556.02
886.115	17455.69
886.432	17413.43
886.75	17399.19
887.067	17388.79
887.383	17418.4
887.7	17361.22
888.017	17119.42
888.334	17197.16
888.651	17135.69
888.967	17168.46
889.284	17016.6
889.6	16903.16
889.917	16939.31
890.233	16837.62
890.55	16772.31
890.866	16848.24
891.182	16793.33
891.498	16731.18
891.815	16684.63
892.131	16608.25
892.447	16576.39
892.763	16485.09
893.079	16415.71
893.395	16417.75
893.71	16406.45
894.026	16352.21
894.342	16336.84
894.657	16172.33
894.973	16125.78
895.289	16223.18
895.604	16081.48
895.92	16018.89
896.235	16008.94
896.55	15938.89
896.865	15823.41
897.181	15744.32
897.496	15726.92
897.811	15736.41
898.126	15689.18
898.441	15582.51
898.756	15592.46
899.071	15370.32
899.386	15451.22
899.7	15333.26
900.015	15290.54
900.33	15185.24
900.644	15225.01
900.959	15229.3
901.273	15059.14
901.588	15067.73
901.902	14993.15
902.216	14861.85
902.531	14918.12
902.845	14816.21
903.159	14726.94
903.473	14793.61
903.787	14690.11
904.101	14557.23
904.415	14610.79
904.729	14548.19
905.042	14473.39
905.356	14430.23
905.67	14409.44
905.984	14345.71
906.297	14361.08
906.611	14197.92
906.924	14118.82
907.237	14197.47
907.551	14116.11
907.864	14071.37
908.177	13963.12
908.491	13861.88
908.804	13763.13
909.117	13738.72
909.43	13635.9
909.743	13609.91
910.056	13637.48
910.368	13505.05
910.681	13536.92
910.994	13470.71
911.307	13326.98
911.619	13284.27
911.932	13278.62
912.244	13171.05
912.557	13229.58
912.869	13079.3
913.181	13016.71
913.494	13012.64
913.806	12958.85
914.118	12882.47
914.43	12798.41
914.742	12810.16
915.054	12809.48
915.366	12684.74
915.678	12719.31
915.99	12604.29
916.302	12507.79
916.613	12458.53
916.925	12469.38
917.236	12414.91
917.548	12316.39
917.859	12305.31
918.171	12167.46
918.482	12110.06
918.794	12068.93
919.105	12135.82
919.416	11938.32
919.727	11919.79
920.038	11960.69
920.349	11765.21
920.66	11846.79
920.971	11786
921.282	11734.48
921.593	11654.03
921.903	11541.26
922.214	11556.18
922.525	11554.15
922.835	11433.02
923.146	11468.05
923.456	11291.1
923.767	11270.99
924.077	11285
924.387	11243.87
924.697	11061.95
925.008	11121.84
925.318	11118.68
925.628	11073.25
925.938	11002.75
926.248	10900.6
926.558	10802.53
926.867	10854.73
927.177	10753.26
927.487	10690.67
927.796	10675.3
928.106	10633.49
928.416	10569.09
928.725	10592.59
929.034	10473.72
929.344	10580.16
929.653	10514.85
929.962	10416.1
930.271	10332.48
930.581	10343.1
930.89	10180.62
931.199	10159.61
931.508	10161.41
931.817	10228.53
932.125	10113.28
932.434	10064.47
932.743	9916.9
933.051	9954.87
933.36	9935.66
933.669	9839.16
933.977	9780.18
934.286	9718.49
934.594	9704.25
934.902	9686.62
935.21	9604.37
935.519	9551.49
935.827	9627.64
936.135	9479.85
936.443	9494.54
936.751	9361.89
937.059	9380.64
937.367	9317.37
937.674	9343.58
937.982	9301.32
938.29	9216.13
938.597	9260.42
938.905	9124.15
939.213	9097.94
939.52	8996.25
939.827	9064.95
940.135	8968.45
940.442	8897.49
940.749	8954.21
941.056	8907.21
941.363	8798.29
941.67	8815.69
941.977	8704.73
942.284	8730.72
942.591	8703.82
942.898	8652.75
943.205	8670.15
943.511	8571.62
943.818	8509.93
944.125	8472.64
944.431	8483.27
944.738	8397.39
945.044	8342.48
945.35	8308.58
945.657	8272.42
945.963	8290.28
946.269	8217.06
946.575	8211.41
946.881	8151.52
947.187	8077.85
947.493	8067.23
947.799	8027.23
948.105	8062.49
948.41	7982.94
948.716	7944.75
949.022	7891.19
949.327	7925.54
949.633	7765.77
949.938	7868.37
950.244	7754.25
950.549	7681.25
950.854	7646
951.16	7652.1
951.465	7655.04
951.77	7532.1
952.075	7548.15
952.38	7501.14
952.685	7528.71
952.99	7397.64
953.294	7411.88
953.599	7340.47
953.904	7342.73
954.209	7282.62
954.513	7330.08
954.818	7275.84
955.122	7235.39
955.426	7191.55
955.731	7182.73
956.035	7098.22
956.339	7019.58
956.643	7035.17
956.948	7006.47
957.252	6921.05
957.556	6940.48
957.86	6914.72
958.163	6893.93
958.467	6907.49
958.771	6822.07
959.075	6821.39
959.378	6788.85
959.682	6808.96
959.985	6768.96
960.289	6690.77
960.592	6639.7
960.896	6584.78
961.199	6571.68
961.502	6590.21
961.805	6558.8
962.108	6541.17
962.411	6515.18
962.714	6415.98
963.017	6447.61
963.32	6474.28
963.623	6328.52
963.926	6350.67
964.228	6299.37
964.531	6309.54
964.833	6315.41
965.136	6183.44
965.438	6174.85
965.741	6109.99
966.043	6090.11
966.345	6095.76
966.648	6086.72
966.95	6061.86
967.252	6046.72
967.554	5961.75
967.856	5962.2
968.158	5951.35
968.46	5901.64
968.761	5912.03
969.063	5865.71
969.365	5768.08
969.666	5827.29
969.968	5751.59
970.269	5758.37
970.571	5672.94
970.872	5641.53
971.174	5666.39
971.475	5611.7
971.776	5608.31
972.077	5634.3
972.378	5581.65
972.679	5543.68
972.98	5466.17
973.281	5499.39
973.582	5494.87
973.883	5447.87
974.183	5453.29
974.484	5388.21
974.785	5364.03
975.085	5350.92
975.386	5316.12
975.686	5269.34
975.986	5253.07
976.287	5261.2
976.587	5173.97
976.887	5221.88
977.187	5195.67
977.487	5180.3
977.787	5109.8
978.087	5089
978.387	5065.05
978.687	5091.94
978.987	5065.5
979.286	4983.92
979.586	5050.81
979.885	4979.85
980.185	4943.25
980.484	4920.87
980.784	4893.08
981.083	4879.07
981.382	4856.24
981.682	4854.43
981.981	4826.86
982.28	4771.72
982.579	4763.14
982.878	4740.99
983.177	4699.64
983.475	4730.37
983.774	4660.77
984.073	4636.81
984.372	4644.95
984.67	4612.41
984.969	4569.47
985.267	4563.82
985.566	4575.35
985.864	4468
986.162	4520.21
986.461	4460.77
986.759	4471.85
987.057	4444.05
987.355	4421.23
987.653	4368.8
987.951	4379.19
988.249	4356.37
988.547	4335.58
988.844	4351.62
989.142	4329.93
989.44	4261.23
989.737	4242.47
990.035	4204.51
990.332	4195.47
990.63	4198.86
990.927	4178.07
991.224	4165.41
991.521	4104.85
991.819	4092.87
992.116	4112.53
992.413	4080.22
992.71	4023.27
993.006	4026.43
993.303	4030.95
993.6	3988.02
993.897	3959.54
994.193	3970.16
994.49	3934.23
994.787	3919.32
995.083	3862.82
995.379	3863.95
995.676	3858.75
995.972	3815.37
996.268	3845.2
996.565	3790.96
996.861	3763.84
997.157	3746.67
997.453	3737.63
997.749	3723.16
998.044	3715.71
998.34	3705.99
998.636	3649.72
998.932	3629.16
999.227	3608.59
999.523	3602.49
999.818	3560.68
1000.114	3524.53
1000.409	3516.84
1000.704	3482.72
1001	3510.06
1001.295	3488.82
1001.59	3452.89
1001.885	3466.45
1002.18	3382.16
1002.475	3360.91
1002.77	3410.86
1003.065	3340.58
1003.359	3356.39
1003.654	3331.99
1003.949	3322.95
1004.243	3260.13
1004.538	3203.4
1004.832	3232.56
1005.127	3244.99
1005.421	3191.2
1005.715	3191.2
1006.009	3166.8
1006.304	3133.8
1006.598	3087.93
1006.892	3080.92
1007.186	3122.95
1007.48	3060.81
1007.773	3048.15
1008.067	3035.5
1008.361	3014.03
1008.655	3027.82
1008.948	3016.29
1009.242	2985.33
1009.535	2957.76
1009.829	2951.43
1010.122	2913.69
1010.415	2888.16
1010.708	2915.73
1011.001	2849.52
1011.295	2841.15
1011.588	2815.17
1011.881	2768.84
1012.173	2805.67
1012.466	2812.68
1012.759	2734.49
1013.052	2732
1013.344	2709.18
1013.637	2723.19
1013.93	2719.12
1014.222	2683.19
1014.514	2660.59
1014.807	2600.48
1015.099	2626.02
1015.391	2610.43
1015.683	2567.04
1015.976	2551.44
1016.268	2564.33
1016.56	2562.07
1016.851	2512.12
1017.143	2460.15
1017.435	2483.2
1017.727	2497.66
1018.018	2455.85
1018.31	2438.23
1018.602	2437.77
1018.893	2398.45
1019.185	2373.37
1019.476	2411.79
1019.767	2346.7
1020.058	2327.27
1020.35	2320.72
1020.641	2293.6
1020.932	2307.61
1021.223	2306.7
1021.514	2265.12
1021.804	2256.76
1022.095	2259.02
1022.386	2208.85
1022.677	2202.53
1022.967	2166.37
1023.258	2131.12
1023.548	2160.27
1023.839	2153.49
1024.129	2085.47
1024.419	2111.91
1024.709	2098.8
1025	2081.17
1025.29	2064.68
1025.58	2049.08
1025.87	2054.06
1026.16	2008.86
1026.449	1995.07
1026.739	1965.47
1027.029	1988.52
1027.319	1926.6
1027.608	1915.98
1027.898	1913.72
1028.187	1934.74
1028.477	1892.7
1028.766	1884.57
1029.055	1889.31
1029.344	1863.1
1029.634	1856.77
1029.923	1832.14
1030.212	1824.91
1030.501	1814.29
1030.79	1774.52
1031.078	1802.09
1031.367	1762.09
1031.656	1766.61
1031.945	1724.8
1032.233	1741.07
1032.522	1689.32
1032.81	1694.29
1033.099	1702.2
1033.387	1695.87
1033.675	1674.41
1033.963	1642.32
1034.251	1645.48
1034.54	1629.43
1034.828	1614.75
1035.116	1631.02
1035.403	1590.34
1035.691	1617.01
1035.979	1560.96
1036.267	1577.68
1036.554	1557.35
1036.842	1567.97
1037.129	1524.8
1037.417	1501.3
1037.704	1508.08
1037.992	1494.07
1038.279	1516.9
1038.566	1464.24
1038.853	1464.24
1039.14	1464.24
