Data from 7415_FLMS001491_008.txt Node
Date: Thu Apr 19 16:29:56 BST 2018
User: hsy
Spectrometer: FLMS00149
Trigger mode: 0
Integration Time (sec): 1.000000E-2
Scans to average: 10
Electric dark correction enabled: true
Nonlinearity correction enabled: false
Boxcar width: 0
XAxis mode: Wavelengths
Number of Pixels in Spectrum: 2048
>>>>>Begin Spectral Data<<<<<
341.393	2.78
341.776	2.78
342.16	2.78
342.543	-53.04
342.927	-47.84
343.31	-62.75
343.693	-70.44
344.077	-66.14
344.46	-57.78
344.843	-61.85
345.226	-49.87
345.61	-55.75
345.993	-14.17
346.376	-0.61
346.759	6.17
347.142	57.92
347.525	47.53
347.908	62.44
348.291	76.45
348.674	82.55
349.057	106.28
349.44	137.92
349.823	173.63
350.206	183.79
350.588	227.86
350.971	257.69
351.354	276.9
351.737	262.66
352.119	303.34
352.502	300.18
352.884	305.37
353.267	308.09
353.65	345.15
354.032	353.51
354.414	362.09
354.797	373.62
355.179	349.21
355.562	374.3
355.944	376.56
356.326	377.46
356.709	380.85
357.091	391.47
357.473	389.89
357.855	393.51
358.238	382.43
358.62	391.47
359.002	386.28
359.384	382.21
359.766	406.16
360.148	381.76
360.53	381.3
360.912	408.65
361.294	386.05
361.676	366.16
362.057	387.41
362.439	346.73
362.821	393.73
363.203	388.08
363.584	364.81
363.966	357.35
364.348	376.11
364.729	389.21
365.111	367.07
365.493	388.53
365.874	380.17
366.256	370.91
366.637	352.83
367.019	388.76
367.4	387.63
367.781	379.27
368.163	379.27
368.544	378.59
368.925	396.67
369.306	389.66
369.688	368.42
370.069	373.85
370.45	396.22
370.831	375.43
371.212	380.4
371.593	361.64
371.974	384.47
372.355	389.21
372.736	369.33
373.117	392.6
373.498	384.24
373.879	390.12
374.26	387.63
374.641	382.43
375.021	367.29
375.402	379.95
375.783	413.85
376.163	404.13
376.544	388.53
376.925	390.34
377.305	400.06
377.686	421.98
378.066	391.92
378.447	404.13
378.827	404.13
379.208	419.04
379.588	410.46
379.968	412.26
380.349	422.43
380.729	421.3
381.109	427.4
381.489	437.8
381.87	441.41
382.25	422.43
382.63	418.82
383.01	432.38
383.39	440.74
383.77	445.93
384.15	442.54
384.53	460.62
384.91	435.09
385.29	455.43
385.67	462.21
386.049	452.71
386.429	473.73
386.809	470.34
387.189	468.76
387.568	473.96
387.948	452.71
388.328	471.24
388.707	482.32
389.087	485.71
389.466	474.18
389.846	468.53
390.225	503.56
390.605	498.81
390.984	499.27
391.363	497.91
391.743	509.89
392.122	496.55
392.501	504.92
392.881	515.09
393.26	523.22
393.639	506.72
394.018	522.54
394.397	537.23
394.776	531.58
395.155	529.1
395.534	536.55
395.913	543.33
396.292	549.43
396.671	540.62
397.05	554.18
397.429	557.57
397.808	534.29
398.186	559.6
398.565	581.75
398.944	565.48
399.323	572.94
399.701	580.85
400.08	607.96
400.458	595.99
400.837	607.06
401.215	615.2
401.594	610.45
401.972	594.18
402.351	610.22
402.729	610.45
403.107	636.66
403.486	645.93
403.864	654.06
404.242	648.87
404.62	644.8
404.999	674.18
405.377	663.78
405.755	679.15
406.133	687.28
406.511	670.56
406.889	688.41
407.267	712.14
407.645	696.55
408.023	713.05
408.401	698.58
408.779	723.44
409.156	737.9
409.534	746.94
409.912	775.42
410.29	763.89
410.667	785.81
411.045	797.56
411.422	783.55
411.8	802.99
412.178	814.96
412.555	799.82
412.933	835.75
413.31	859.71
413.687	868.07
414.065	886.15
414.442	893.83
414.819	894.28
415.197	897.22
415.574	917.33
415.951	952.36
416.328	971.34
416.705	979.71
417.082	970.89
417.46	978.8
417.837	995.52
418.214	992.81
418.591	1024.22
418.967	1041.17
419.344	1047.5
419.721	1044.56
420.098	1055.64
420.475	1059.03
420.852	1047.95
421.228	1072.58
421.605	1106.26
421.982	1127.05
422.358	1111.91
422.735	1120.95
423.111	1121.62
423.488	1146.71
423.864	1125.69
424.241	1159.36
424.617	1168.63
424.994	1155.52
425.37	1188.06
425.746	1218.12
426.123	1210.66
426.499	1211.79
426.875	1258.34
427.251	1266.7
427.627	1282.52
428.003	1304.67
428.379	1292.47
428.756	1343.31
429.132	1364.1
429.507	1346.93
429.883	1388.51
430.259	1376.08
430.635	1390.09
431.011	1421.05
431.387	1482.29
431.763	1469.18
432.138	1472.57
432.514	1493.82
432.89	1522.74
433.265	1562.29
433.641	1581.5
434.016	1583.76
434.392	1607.03
434.767	1619.01
435.143	1626.92
435.518	1639.58
435.894	1665.56
436.269	1680.48
436.644	1703.3
437.02	1735.62
437.395	1711.66
437.77	1777.65
438.145	1767.03
438.52	1770.42
438.895	1827.37
439.271	1816.75
439.646	1845.22
440.021	1849.29
440.395	1859.68
440.77	1860.36
441.145	1878.89
441.52	1911.88
441.895	1939.68
442.27	1928.83
442.645	1948.27
443.019	1946.46
443.394	1983.3
443.769	1976.74
444.143	1930.19
444.518	2007.7
444.892	1973.13
445.267	2030.98
445.641	1988.04
446.016	2019.9
446.39	2076.4
446.764	2045.89
447.139	2058.55
447.513	2071.65
447.887	2091.32
448.262	2120.24
448.636	2134.48
449.01	2159.56
449.384	2158.66
449.758	2174.48
450.132	2172.22
450.506	2180.8
450.88	2202.95
451.254	2225.77
451.628	2246.79
452.002	2275.04
452.376	2304.87
452.75	2323.4
453.123	2316.62
453.497	2386.22
453.871	2379.22
454.244	2398.65
454.618	2440.68
454.992	2478.88
455.365	2514.81
455.739	2521.59
456.112	2551.87
456.486	2577.63
456.859	2614.92
457.232	2672.32
457.606	2686.33
457.979	2712.77
458.352	2741.92
458.725	2792.99
459.099	2812.88
459.472	2855.59
459.845	2886.1
460.218	2894.01
460.591	2949.82
460.964	2985.75
461.337	2998.18
461.71	3091.74
462.083	3066.2
462.456	3083.38
462.829	3073.89
463.201	3165.19
463.574	3152.76
463.947	3254.9
464.32	3294.9
464.692	3336.25
465.065	3333.77
465.438	3380.32
465.81	3417.83
466.183	3441.34
466.555	3484.05
466.928	3515.68
467.3	3541.67
467.672	3580.54
468.045	3649.01
468.417	3636.59
468.789	3669.13
469.161	3742.8
469.534	3784.83
469.906	3843.36
470.278	3885.39
470.65	3932.62
471.022	4007.2
471.394	3997.03
471.766	4043.35
472.138	4117.93
472.51	4186.85
472.882	4265.95
473.253	4339.39
473.625	4352.27
473.997	4445.15
474.369	4455.32
474.74	4464.59
475.112	4581.65
475.484	4663.68
475.855	4704.58
476.227	4779.83
476.598	4850.79
476.97	4928.98
477.341	5011.92
477.713	5098.92
478.084	5145.7
478.455	5262.31
478.827	5305.02
479.198	5494.16
479.569	5464.11
479.94	5592.92
480.311	5630.43
480.682	5798.56
481.053	5950.2
481.424	6061.15
481.795	6133.47
482.166	6173.92
482.537	6224.99
482.908	6397.64
483.279	6482.39
483.65	6662.72
484.021	6746.33
484.391	6858.65
484.762	6894.13
485.133	6958.98
485.503	7103.16
485.874	7311.74
486.244	7297.51
486.615	7473.55
486.985	7563.94
487.356	7750.15
487.726	7833.54
488.097	8012.74
488.467	8096.58
488.837	8249.57
489.207	8330.25
489.578	8535.67
489.948	8631.03
490.318	8813.17
490.688	8822.89
491.058	8989.21
491.428	9102.66
491.798	9286.61
492.168	9386.49
492.538	9612.93
492.908	9720.72
493.278	9883.65
493.648	9840.04
494.017	10122.52
494.387	10140.14
494.757	10243.87
495.126	10348.95
495.496	10482.51
495.866	10701.71
496.235	10782.84
496.605	10900.57
496.974	10946.68
497.344	11117.97
497.713	11249.04
498.082	11222.6
498.452	11478.64
498.821	11586.66
499.19	11684.74
499.559	11893.54
499.928	11994.56
500.298	11990.49
500.667	12279.3
501.036	12204.5
501.405	12390.48
501.774	12407.88
502.143	12612.39
502.512	12756.35
502.88	12879.28
503.249	13015.55
503.618	13104.81
503.987	13138.93
504.356	13255.09
504.724	13416.44
505.093	13435.88
505.462	13606.94
505.83	13701.63
506.199	13770.56
506.567	13980.04
506.936	14070.44
507.304	14241.96
507.672	14380.03
508.041	14389.3
508.409	14531.67
508.777	14710.19
509.145	14803.75
509.514	14845.56
509.882	14981.37
510.25	15035.61
510.618	15280.12
510.986	15327.35
511.354	15495.48
511.722	15602.15
512.09	15711.75
512.458	15695.25
512.826	15991.97
513.193	16044.17
513.561	16199.42
513.929	16207.33
514.297	16445.74
514.664	16569.58
515.032	16611.39
515.4	16743.36
515.767	16940.87
516.135	16958.27
516.502	16993.3
516.869	17197.36
517.237	17386.51
517.604	17381.76
517.972	17675.31
518.339	17717.34
518.706	17755.08
519.073	17926.38
519.44	17972.93
519.808	18210.67
520.175	18235.52
520.542	18549.41
520.909	18532.46
521.276	18686.13
521.643	18976.29
522.009	19011.55
522.376	19256.97
522.743	19294.25
523.11	19517.07
523.477	19733.79
523.843	19920.9
524.21	20053.78
524.577	20168.81
524.943	20350.72
525.31	20460.1
525.676	20716.81
526.043	20906.19
526.409	21050.14
526.776	21320.87
527.142	21287.65
527.508	21362.22
527.874	21704.58
528.241	21695.55
528.607	21860.74
528.973	22185.93
529.339	22216.21
529.705	22410.78
530.071	22576.88
530.437	22693.94
530.803	22912.01
531.169	22995.62
531.535	23127.82
531.901	23161.95
532.267	23291.66
532.632	23490.53
532.998	23591.09
533.364	23729.84
533.73	23900.46
534.095	24103.17
534.461	24111.08
534.826	24201.02
535.192	24317.85
535.557	24568.01
535.923	24572.76
536.288	24664.73
536.653	24879.64
537.019	24812.75
537.384	24921.68
537.749	25127.77
538.114	25173.87
538.479	25212.74
538.845	25238.05
539.21	25339.52
539.575	25406.63
539.94	25581.09
540.305	25688.21
540.67	25706.06
541.034	25731.37
541.399	25806.85
541.764	25990.57
542.129	26000.97
542.494	26109.67
542.858	26240.06
543.223	26226.95
543.587	26346.27
543.952	26486.15
544.316	26515.98
544.681	26520.96
545.045	26767.95
545.41	26664.23
545.774	26723.66
546.138	26767.5
546.503	26956.88
546.867	26998.91
547.231	27220.6
547.595	27188.73
547.959	27358.22
548.324	27435.73
548.688	27423.98
549.052	27522.06
549.416	27524.32
549.779	27656.74
550.143	27630.08
550.507	27845.89
550.871	27885.21
551.235	27892.9
551.599	28168.37
551.962	28170.63
552.326	28176.5
552.689	28284.52
553.053	28194.58
553.417	28334.01
553.78	28675.47
554.143	28689.71
554.507	28791.63
554.87	28757.05
555.234	29078.63
555.597	28789.14
555.96	29041.79
556.323	29302.13
556.686	29303.71
557.05	29618.27
557.413	29525.85
557.776	29525.4
558.139	29839.51
558.502	29802.68
558.865	29796.8
559.228	30102.78
559.59	30210.35
559.953	30274.08
560.316	30481.98
560.679	30526.95
561.041	30730.79
561.404	30947.96
561.767	31144.34
562.129	31096.65
562.492	31153.15
562.854	31258.46
563.217	31372.35
563.579	31460.94
563.941	31709.75
564.304	31908.38
564.666	32047.14
565.028	32066.57
565.39	32213.23
565.753	32608.93
566.115	32495.94
566.477	32736.84
566.839	32832.65
567.201	33114.68
567.563	33135.7
567.925	33469.7
568.287	33511.73
568.648	33615.01
569.01	33717.15
569.372	33962.34
569.734	34038.72
570.095	34365.72
570.457	34560.29
570.819	34699.72
571.18	34740.63
571.542	34952.6
571.903	35012.94
572.265	35141.07
572.626	35449.76
572.987	35427.39
573.349	35778.56
573.71	35870.09
574.071	35941.5
574.432	36292.45
574.794	36627.58
575.155	36561.14
575.516	36694.25
575.877	36856.5
576.238	37048.59
576.599	37126.78
576.96	37423.72
577.32	37593.88
577.681	37854.44
578.042	38092.4
578.403	38204.49
578.763	38194.32
579.124	38270.25
579.485	38770.8
579.845	38839.5
580.206	38836.34
580.566	38947.52
580.927	39229.55
581.287	39609.42
581.648	39587.5
582.008	39813.71
582.368	39983.88
582.728	40349.52
583.089	40406.47
583.449	40603.97
583.809	40843.29
584.169	41104.07
584.529	41202.83
584.889	41785.41
585.249	41539.32
585.609	41647.56
585.969	42266.98
586.329	42248.68
586.688	42682.56
587.048	42900.19
587.408	42951.03
587.768	43128.88
588.127	43490.9
588.487	43684.57
588.846	44391.45
589.206	44128.63
589.565	44438.9
589.925	45106.23
590.284	45087.25
590.643	45419.22
591.003	45666.67
591.362	46113.89
591.721	46235.24
592.08	46454.89
592.44	46914.32
592.799	47015.78
593.158	47350.01
593.517	47407.41
593.876	47849.66
594.235	47992.03
594.593	48213.27
594.952	48634.05
595.311	48653.03
595.67	48994.04
596.029	49388.83
596.387	49746.79
596.746	50009.6
597.104	50024.29
597.463	50211.41
597.822	50566.42
598.18	50473.55
598.538	50815.23
598.897	51270.36
599.255	51260.19
599.613	51842.32
599.972	51750.35
600.33	52014.3
600.688	52055.88
601.046	52349.43
601.404	52721.17
601.762	52737.44
602.12	52998
602.478	53231.89
602.836	53390.31
603.194	53285.45
603.552	53630.75
603.91	53625.1
604.268	53898.99
604.625	53989.39
604.983	54253.79
605.341	54216.72
605.698	54545.76
606.056	54786.65
606.413	54791.62
606.771	55020.09
607.128	55117.27
607.485	55176.47
607.843	55297.83
608.2	55571.94
608.557	55694.88
608.914	55768.1
609.272	56003.34
609.629	56202.21
609.986	56346.39
610.343	56358.59
610.7	56667.06
611.057	56651.91
611.414	56647.62
611.771	56859.14
612.127	57074.73
612.484	57077.89
612.841	57205.12
613.198	57169.87
613.554	57352.91
613.911	57584.77
614.267	57653.92
614.624	57641.04
614.98	57755.84
615.337	57997.19
615.693	57969.17
616.05	58044.87
616.406	58245.09
616.762	58182.5
617.118	58249.84
617.475	58352.43
617.831	58514.69
618.187	58531.19
618.543	58669.26
618.899	58773.44
619.255	58777.73
619.611	58809.15
619.967	58916.04
620.323	59084.39
620.678	58978.41
621.034	59050.27
621.39	59093.66
621.746	59108.8
622.101	59428.79
622.457	59183.6
622.812	59379.75
623.168	59406.87
623.523	59480.77
623.879	59537.94
624.234	59426.76
624.589	59527.77
624.945	59611.16
625.3	59644.15
625.655	59650.71
626.01	59725.05
626.365	59711.72
626.72	59663.59
627.075	59710.14
627.43	59789.68
627.785	59740.42
628.14	59773.41
628.495	59796.01
628.85	59864.03
629.205	59822.23
629.559	59953.3
629.914	59831.27
630.269	59911.04
630.623	59805.96
630.978	59728.22
631.332	59942.9
631.687	59874.43
632.041	59809.8
632.396	59831.49
632.75	59804.83
633.104	59858.61
633.459	59734.32
633.813	59772.28
634.167	59770.7
634.521	59804.15
634.875	59848.21
635.229	59768.44
635.583	59666.52
635.937	59740.19
636.291	59717.6
636.645	59704.26
636.999	59608.67
637.352	59605.96
637.706	59511.73
638.06	59635.11
638.413	59584.27
638.767	59535.91
639.121	59561.89
639.474	59477.38
639.828	59489.13
640.181	59476.92
640.534	59506.98
640.888	59344.72
641.241	59251.17
641.594	59353.76
641.947	59410.03
642.301	59285.29
642.654	59322.58
643.007	59285.97
643.36	59289.81
643.713	59266.08
644.066	59358.96
644.419	59145.63
644.771	58948.8
645.124	58696.15
645.477	58707
645.83	58539.1
646.182	58481.92
646.535	58445.99
646.888	58507.23
647.24	58404.86
647.593	58597.85
647.945	58395.6
648.298	58331.19
648.65	58295.03
649.002	58115.15
649.355	58186.34
649.707	58094.81
650.059	58224.53
650.411	58476.5
650.763	58610.51
651.115	58910.84
651.467	58818.19
651.819	58831.52
652.171	58704.74
652.523	58637.4
652.875	58692.76
653.227	58573.9
653.578	58766.44
653.93	58655.48
654.282	58507.46
654.633	58568.02
654.985	58596.95
655.337	58511.3
655.688	58561.47
656.039	58591.75
656.391	58365.32
656.742	58399.44
657.094	58378.65
657.445	58448.93
657.796	58391.08
658.147	58361.25
658.498	58395.6
658.849	58468.59
659.2	58317.41
659.551	58223.4
659.902	58368.48
660.253	58255.49
660.604	58354.92
660.955	58230.4
661.306	58289.61
661.656	58166.22
662.007	58221.14
662.358	58194.02
662.708	58108.37
663.059	58097.53
663.409	58043.74
663.76	58115.6
664.11	58196.28
664.461	58191.08
664.811	58196.51
665.161	58202.16
665.511	58089.84
665.862	58155.38
666.212	58181.37
666.562	58142.72
666.912	58146.11
667.262	58036.28
667.612	58038.77
667.962	58099.11
668.312	58016.85
668.662	58139.11
669.011	58075.83
669.361	58008.04
669.711	58066.34
670.06	58062.27
670.41	58010.52
670.76	57937.53
671.109	58075.38
671.459	58021.37
671.808	58029.28
672.157	58004.65
672.507	57855.05
672.856	57878.55
673.205	57949.51
673.554	57960.81
673.904	57878.55
674.253	58069.73
674.602	57867.48
674.951	57587.03
675.3	57402.63
675.649	57894.37
675.998	57826.57
676.346	57895.72
676.695	57871.54
677.044	57715.16
677.393	57826.12
677.741	57889.4
678.09	57774.37
678.438	57700.02
678.787	57821.6
679.135	57781.83
679.484	57581.61
679.832	57653.7
680.181	57629.52
680.529	57627.03
680.877	57568.5
681.225	57502.97
681.573	57742.06
681.922	57587.48
682.27	57442.18
682.618	57534.15
682.966	57482.18
683.314	57462.51
683.661	57434.27
684.009	57281.95
684.357	57247.38
684.705	57290.77
685.053	57326.25
685.4	57141.62
685.748	57148.17
686.095	57144.56
686.443	57082.64
686.79	57017.78
687.138	57121.05
687.485	57065.69
687.832	56947.5
688.18	57028.18
688.527	56858.69
688.874	56921.74
689.221	56848.29
689.568	56746.38
689.915	56723.1
690.262	56778.46
690.609	56677.68
690.956	56650.11
691.303	56609.88
691.65	56510
691.997	56500.05
692.344	56387.29
692.69	56297.12
693.037	56345.03
693.383	56144.13
693.73	56273.62
694.077	56113.85
694.423	56110.69
694.769	56008.32
695.116	56021.65
695.462	55876.12
695.808	55762.22
696.155	55924.7
696.501	55639.06
696.847	55725.39
697.193	55564.26
697.539	55601.77
697.885	55424.15
698.231	55416.24
698.577	55356.36
698.923	55333.08
699.269	55156.36
699.614	55095.35
699.96	54978.96
700.306	55021.22
700.651	54857.61
700.997	54818.29
701.342	54768.57
701.688	54686.99
702.033	54624.85
702.379	54590.5
702.724	54517.28
703.069	54509.15
703.415	54263.5
703.76	54348.47
704.105	54283.39
704.45	54122.49
704.795	54119.33
705.14	53937.18
705.485	53977.86
705.83	53839.56
706.175	53883.63
706.52	53830.52
706.865	53637.3
707.209	53580.58
707.554	53534.93
707.899	53476.4
708.243	53397.31
708.588	53352.34
708.932	53240.48
709.277	53229.86
709.621	53065.57
709.966	52970.2
710.31	53017.89
710.654	52784.9
710.998	52869.64
711.342	52852.92
711.687	52679.82
712.031	52658.8
712.375	52534.96
712.719	52528.18
713.063	52486.15
713.407	52604.11
713.75	52321.41
714.094	52351.46
714.438	52202.99
714.782	52250.9
715.125	52042.77
715.469	52170.22
715.812	51829.67
716.156	51864.7
716.499	51819.95
716.843	51874.86
717.186	51662.89
717.53	51744.47
717.873	51824.47
718.216	51646.85
718.559	51709.45
718.902	51319.17
719.246	51356.91
719.589	51328.89
719.932	51177.48
720.275	51095.68
720.617	51248.21
720.96	51150.59
721.303	51078.95
721.646	51097.71
721.989	50886.87
722.331	50976.58
722.674	50821.11
723.016	50935.68
723.359	50812.97
723.701	50737.95
724.044	50607.33
724.386	50473.55
724.729	50684.84
725.071	50561.68
725.413	50467.44
725.755	50431.29
726.097	50249.14
726.439	50175.25
726.782	50174.12
727.124	50366.43
727.465	50222.93
727.807	50064.52
728.149	50165.98
728.491	49954.92
728.833	50002.15
729.175	49989.49
729.516	49856.39
729.858	49845.54
730.199	49964.18
730.541	49677.63
730.882	49646.9
731.224	49764.86
731.565	49581.59
731.906	49566.45
732.248	49551.31
732.589	49391.99
732.93	49310.41
733.271	49354.03
733.612	49390.41
733.953	49439.22
734.294	49264.54
734.635	49185.67
734.976	49340.69
735.317	49167.59
735.658	48962.4
735.999	48951.78
736.339	48869.97
736.68	48961.95
737.021	48970.76
737.361	48806.92
737.702	48983.42
738.042	48768.51
738.383	48708.85
738.723	48864.1
739.063	48548.85
739.404	48729.86
739.744	48594.5
740.084	48574.61
740.424	48666.81
740.764	48381.17
741.104	48519.02
741.444	48314.05
741.784	48154.06
742.124	48438.8
742.464	48222.31
742.804	48081.52
743.143	47973.27
743.483	48124.91
743.823	47884.46
744.162	47979.6
744.502	47931.69
744.841	47898.02
745.181	47965.36
745.52	47873.61
745.86	47854.41
746.199	47704.8
746.538	47791.13
746.877	47878.13
747.216	47656.67
747.556	47582.77
747.895	47586.16
748.234	47371.71
748.573	47524.47
748.911	47248.55
749.25	47342.55
749.589	47232.73
749.928	47148.44
750.267	47238.15
750.605	47072.96
750.944	47032.96
751.283	46896.24
751.621	46928.78
751.96	46707.54
752.298	46719.07
752.636	46739.18
752.975	46491.96
753.313	46415.12
753.651	46565.63
753.989	46393.43
754.327	46353.2
754.666	46042.7
755.004	46196.14
755.342	46025.75
755.679	46102.36
756.017	45795.25
756.355	46058.29
756.693	45820.79
757.031	45908.92
757.368	45557.74
757.706	45676.84
758.044	45432.1
758.381	45428.93
758.719	45274.81
759.056	45270.97
759.394	45148.49
759.731	44752.11
760.068	44755.05
760.405	44824.43
760.743	44580.14
761.08	44564.55
761.417	44322.75
761.754	44355.29
762.091	44315.06
762.428	43993.94
762.765	43893.15
763.102	43958.01
763.438	43622.65
763.775	43461.3
764.112	43630.79
764.449	43499.04
764.785	43279.38
765.122	43069.67
765.458	42928.43
765.795	42927.08
766.131	42841.43
766.467	42692.73
766.804	42441.44
767.14	42092.98
767.476	42111.51
767.812	42129.81
768.148	42078.51
768.485	41856.6
768.821	41588.81
769.157	41447.57
769.492	41442.37
769.828	41430.85
770.164	40967.13
770.5	40930.75
770.836	40894.36
771.171	40801.26
771.507	40578.66
771.842	40325.79
772.178	40304.1
772.513	40244.89
772.849	40043.31
773.184	39931.68
773.519	39756.09
773.855	39612.59
774.19	39460.73
774.525	39292.82
774.86	39310.9
775.195	39105.94
775.53	39044.24
775.865	38740.52
776.2	38465.27
776.535	38420.53
776.87	38220.53
777.205	38191.16
777.539	38038.62
777.874	38024.16
778.209	37580.78
778.543	37827.55
778.878	37535.13
779.212	37545.98
779.547	37154.12
779.881	37210.84
780.215	36860.8
780.55	36912.32
780.884	36657.64
781.218	36529.51
781.552	36664.19
781.886	36363.63
782.22	36045.68
782.554	35968.16
782.888	35727.27
783.222	35725.01
783.556	35579.7
783.889	35574.5
784.223	35234.4
784.557	35162.08
784.89	35285.24
785.224	34972.26
785.557	34798.25
785.891	34718.03
786.224	34643.91
786.558	34683.68
786.891	34622.21
787.224	34153.75
787.557	34147.65
787.891	34060.42
788.224	33795.11
788.557	33775.23
788.89	33710.6
789.223	33574.33
789.556	33368.23
789.888	33367.1
790.221	33204.85
790.554	32994.46
790.887	33006.66
791.219	32881.69
791.552	32771.19
791.884	32478.99
792.217	32600.12
792.549	32388.6
792.882	32123.75
793.214	32035.16
793.546	32104.54
793.879	31835.62
794.211	31688.5
794.543	31773.25
794.875	31717.43
795.207	31656.41
795.539	31484.44
795.871	31567.83
796.203	31330.55
796.535	31047.84
796.867	31100.27
797.198	30891.69
797.53	30807.4
797.862	30611.02
798.193	30691.69
798.525	30487.18
798.856	30486.73
799.188	30225.26
799.519	30044.25
799.85	29883.13
800.182	29940.3
800.513	30083.57
800.844	29689.69
801.175	29902.56
801.506	29892.39
801.837	29618.5
802.168	29504.83
802.499	29472.52
802.83	29369.92
803.161	29315.23
803.491	29171.51
803.822	29243.82
804.153	29011.74
804.483	28749.37
804.814	28706.89
805.145	28755.02
805.475	28730.61
805.805	28647
806.136	28661.69
806.466	28438.87
806.796	28460.11
807.126	28235.71
807.457	28121.82
807.787	28176.73
808.117	28103.06
808.447	27943.74
808.777	28068.26
809.107	27716.86
809.436	27658.78
809.766	27753.69
810.096	27751.43
810.426	27596.63
810.755	27575.16
811.085	27496.52
811.414	27397.77
811.744	27295.85
812.073	27246.59
812.403	27156.19
812.732	26925.92
813.061	27136.98
813.39	26953.49
813.719	26756.43
814.049	27087.72
814.378	26951.23
814.707	26662.42
815.036	26830.33
815.365	26557.11
815.693	26401.41
816.022	26415.87
816.351	26357.34
816.68	26310.34
817.008	26292.49
817.337	26113.28
817.665	26028.76
817.994	26012.72
818.322	26092.72
818.651	25971.59
818.979	25901.08
819.307	25859.96
819.636	25841.2
819.964	25774.76
820.292	25791.93
820.62	25693.86
820.948	25730.69
821.276	25763.24
821.604	25654.76
821.932	25865.83
822.259	25744.93
822.587	25652.5
822.915	25658.6
823.243	25718.94
823.57	25552.17
823.898	25781.09
824.225	25570.7
824.553	25567.08
824.88	25638.49
825.207	25764.59
825.535	25463.81
825.862	25632.39
826.189	25610.92
826.516	25833.74
826.843	25744.93
827.17	25720.52
827.497	25621.54
827.824	25706.74
828.151	25694.31
828.478	25592.17
828.805	25857.47
829.131	25695.89
829.458	25601.66
829.785	25503.35
830.111	25622.9
830.438	25822.22
830.764	25663.35
831.09	25697.7
831.417	25554.88
831.743	25632.62
832.069	25612.96
832.395	25569.34
832.722	25514.43
833.048	25513.52
833.374	25547.65
833.7	25511.72
834.026	25500.64
834.351	25537.48
834.677	25431.27
835.003	25440.31
835.329	25463.58
835.654	25402.57
835.98	25200.76
836.306	25383.36
836.631	25286.86
836.956	25412.28
837.282	25414.09
837.607	25266.98
837.932	25181.56
838.258	25204.38
838.583	25050.26
838.908	25092.97
839.233	25148.34
839.558	24915.35
839.883	24959.41
840.208	24819.08
840.533	24876.93
840.858	24849.36
841.182	24810.27
841.507	24855.46
841.832	24735.47
842.156	24714
842.481	24594.23
842.805	24511.97
843.13	24463.38
843.454	24464.96
843.778	24387
844.103	24232.43
844.427	24198.98
844.751	24360.79
845.075	24242.6
845.399	23987.91
845.723	24040.12
846.047	23957.18
846.371	23832.44
846.695	23793.34
847.019	23727.81
847.343	23505.44
847.666	23501.15
847.99	23346.8
848.313	23249.18
848.637	23222.51
848.96	23106.58
849.284	23118.33
849.607	22874.72
849.931	22908.39
850.254	22837.44
850.577	22608.06
850.9	22437.9
851.223	22547.95
851.546	22347.51
851.869	22253.27
852.192	22338.92
852.515	22097.34
852.838	22054.18
853.161	22068.64
853.483	21851.02
853.806	21815.77
854.129	21760.85
854.451	21717.01
854.774	21570.12
855.096	21522.89
855.419	21477.25
855.741	21424.14
856.063	21378.04
856.385	21194.54
856.708	21260.08
857.03	21213.98
857.352	21097.37
857.674	21107.99
857.996	20938.5
858.318	20860.99
858.64	20824.38
858.961	20762.46
859.283	20658.96
859.605	20658.06
859.926	20631.39
860.248	20660.54
860.57	20479.31
860.891	20437.95
861.212	20317.5
861.534	20261.23
861.855	20134.23
862.176	20239.09
862.498	20208.8
862.819	20298.52
863.14	20132.87
863.461	20125.64
863.782	20024.18
864.103	20072.54
864.424	20002.93
864.745	20055.14
865.065	19868.02
865.386	19800
865.707	19773.56
866.027	19872.99
866.348	19714.13
866.668	19692.89
866.989	19655.37
867.309	19439.11
867.63	19667.35
867.95	19656.73
868.27	19460.12
868.59	19535.38
868.91	19479.11
869.23	19428.71
869.55	19329.05
869.87	19404.31
870.19	19310.07
870.51	19291.54
870.83	19167.25
871.15	19110.98
871.469	19154.37
871.789	19210.86
872.109	19159.34
872.428	19066.91
872.748	19113.47
873.067	19026.69
873.386	18966.13
873.706	18964.54
874.025	18926.58
874.344	18916.64
874.663	18954.15
874.982	18852.23
875.301	18885
875.62	18803.87
875.939	18753.25
876.258	18759.8
876.577	18615.17
876.896	18601.16
877.214	18565.91
877.533	18639.35
877.852	18634.61
878.17	18489.98
878.489	18559.58
878.807	18407.27
879.125	18418.34
879.444	18380.6
879.762	18334.5
880.08	18413.6
880.398	18303.54
880.716	18340.38
881.034	18107.17
881.352	18271.68
881.67	18182.87
881.988	18147.39
882.306	18100.61
882.624	17970.67
882.941	17981.74
883.259	17933.38
883.577	17789.43
883.894	17895.65
884.212	17893.61
884.529	17831.47
884.846	17782.43
885.164	17744.01
885.481	17718.47
885.798	17839.38
886.115	17478.03
886.432	17599.38
886.75	17486.84
887.067	17609.1
887.383	17430.57
887.7	17405.49
888.017	17285.27
888.334	17333.4
888.651	17292.27
888.967	17261.76
889.284	17194.19
889.6	17210.92
889.917	17060.41
890.233	17032.17
890.55	17046.63
890.866	16984.03
891.182	17003.24
891.498	16883.02
891.815	16786.97
892.131	16733.87
892.447	16739.29
892.763	16649.8
893.079	16608
893.395	16560.54
893.71	16574.32
894.026	16501.56
894.342	16428.11
894.657	16321.68
894.973	16327.32
895.289	16342.01
895.604	16253.2
895.92	16160.78
896.235	16063.6
896.55	16071.74
896.865	16052.53
897.181	16005.98
897.496	15935.47
897.811	15814.12
898.126	15819.99
898.441	15714.69
898.756	15703.84
899.071	15625.65
899.386	15611.64
899.7	15536.84
900.015	15442.38
900.33	15346.56
900.644	15270.86
900.959	15349.72
901.273	15128.94
901.588	15183.63
901.902	15095.72
902.216	14995.83
902.531	15014.37
902.845	14943.41
903.159	14843.3
903.473	14806.01
903.787	14710.64
904.101	14708.84
904.415	14673.13
904.729	14665.9
905.042	14526.69
905.356	14512.68
905.67	14495.73
905.984	14508.39
906.297	14326.7
906.611	14201.73
906.924	14299.36
907.237	14193.14
907.551	14153.37
907.864	14041.96
908.177	14177.78
908.491	14040.15
908.804	13941.62
909.117	13840.61
909.43	13738.01
909.743	13678.13
910.056	13761.52
910.368	13615.76
910.681	13550.67
910.994	13483.11
911.307	13442.66
911.619	13359.95
911.932	13376.22
912.244	13250.57
912.557	13309.55
912.869	13140.97
913.181	13128.76
913.494	13151.82
913.806	13056.45
914.118	12925.83
914.43	12951.37
914.742	12879.28
915.054	12823.01
915.366	12780.75
915.678	12699.62
915.99	12724.93
916.302	12565.16
916.613	12487.65
916.925	12507.99
917.236	12482.45
917.548	12357.94
917.859	12312.74
918.171	12288.79
918.482	12250.82
918.794	12168.79
919.105	12082.24
919.416	12086.98
919.727	12083.37
920.038	11960.89
920.349	11880.66
920.66	11867.1
920.971	11892.41
921.282	11799.08
921.593	11769.48
921.903	11597.96
922.214	11592.53
922.525	11559.99
922.835	11503.27
923.146	11463.5
923.456	11398.41
923.767	11310.28
924.077	11300.79
924.387	11312.54
924.697	11282.26
925.008	11261.24
925.318	11140.34
925.628	11117.52
925.938	11046.79
926.248	10984.19
926.558	10921.59
926.867	10870.29
927.177	10873.91
927.487	10805.66
927.796	10744.19
928.106	10727.02
928.416	10693.35
928.725	10595.95
929.034	10668.49
929.344	10554.82
929.653	10503.3
929.962	10377.2
930.271	10378.1
930.581	10351.21
930.89	10290.2
931.199	10223.76
931.508	10260.82
931.817	10209.97
932.125	10158.67
932.434	10127.26
932.743	9976.76
933.051	10037.77
933.36	9992.12
933.669	9907.61
933.977	9884.33
934.286	9773.82
934.594	9838.68
934.902	9724.33
935.21	9703.77
935.519	9686.82
935.827	9621.96
936.135	9548.29
936.443	9550.33
936.751	9448.86
937.059	9446.38
937.367	9391.46
937.674	9383.33
937.982	9316.44
938.29	9280.05
938.597	9310.11
938.905	9172.48
939.213	9181.3
939.52	9057.69
939.827	9142.43
940.135	9083
940.442	9035.54
940.749	8939.5
941.056	8963.68
941.363	8912.83
941.67	8884.13
941.977	8751.25
942.284	8766.17
942.591	8705.83
942.898	8760.29
943.205	8695.66
943.511	8612.95
943.818	8574.76
944.125	8510.58
944.431	8548.32
944.738	8436.01
945.044	8454.99
945.35	8351.72
945.657	8339.74
945.963	8332.05
946.269	8281.43
946.575	8252.96
946.881	8210.48
947.187	8214.77
947.493	8178.61
947.799	8127.09
948.105	8069.01
948.41	7974.1
948.716	7989.24
949.022	7911.28
949.327	7942.46
949.633	7825.18
949.938	7858.62
950.244	7845.29
950.549	7821.79
950.854	7698.85
951.16	7674.67
951.465	7662.47
951.77	7621.79
952.075	7550.83
952.38	7613.66
952.685	7554
952.99	7458.86
953.294	7463.6
953.599	7330.73
953.904	7402.36
954.209	7323.27
954.513	7374.34
954.818	7309.71
955.122	7243.72
955.426	7251.18
955.731	7160.79
956.035	7135.48
956.339	7157.62
956.643	7070.17
956.948	7017.97
957.252	7026.33
957.556	7048.47
957.86	6984.29
958.163	6939.55
958.467	6916.95
958.771	6886.44
959.075	6796.05
959.378	6746.33
959.682	6769.16
959.985	6753.11
960.289	6715.15
960.592	6692.1
960.896	6646.22
961.199	6613.68
961.502	6617.98
961.805	6526.68
962.108	6568.94
962.411	6511.99
962.714	6462.27
963.017	6461.14
963.32	6466.79
963.623	6394.7
963.926	6379.56
964.228	6365.78
964.531	6311.32
964.833	6357.19
965.136	6241.94
965.438	6235.84
965.741	6148.61
966.043	6193.81
966.345	6096.18
966.648	6119.46
966.95	6051.21
967.252	6044.21
967.554	6013.47
967.856	6028.84
968.158	5952.23
968.46	5932.12
968.761	5954.49
969.063	5916.75
969.365	5843.08
969.666	5887.37
969.968	5797.21
970.269	5785.68
970.571	5778.45
970.872	5712.46
971.174	5695.74
971.475	5676.31
971.776	5647.61
972.077	5625.46
972.378	5620.71
972.679	5574.61
972.98	5568.51
973.281	5505.91
973.582	5484.67
973.883	5515.63
974.183	5488.29
974.484	5433.15
974.785	5373.04
975.085	5361.06
975.386	5368.97
975.686	5344.11
975.986	5316.77
976.287	5255.53
976.587	5207.17
976.887	5225.92
977.187	5234.06
977.487	5170.1
977.787	5171.23
978.087	5135.98
978.387	5148.41
978.687	5105.47
978.987	5080.84
979.286	5008.3
979.586	5070.45
979.885	4998.13
980.185	4979.6
980.484	4891.47
980.784	4887.85
981.083	4907.74
981.382	4859.6
981.682	4799.94
981.981	4825.93
982.28	4822.77
982.579	4751.36
982.878	4778.48
983.177	4769.44
983.475	4714.75
983.774	4678.82
984.073	4684.47
984.372	4660.06
984.67	4630.68
984.969	4632.49
985.267	4661.19
985.566	4568.31
985.864	4472.95
986.162	4576.22
986.461	4497.35
986.759	4468.2
987.057	4418.71
987.355	4418.26
987.653	4359.5
987.951	4440.18
988.249	4352.5
988.547	4359.5
988.844	4397.24
989.142	4301.43
989.44	4307.08
989.737	4244.7
990.035	4302.56
990.332	4239.06
990.63	4185.95
990.927	4221.2
991.224	4188.44
991.521	4110.02
991.819	4111.15
992.116	4094.2
992.413	4068.89
992.71	4032.73
993.006	4026.86
993.303	4010.81
993.6	4024.82
993.897	3985.73
994.193	3979.63
994.49	3961.55
994.787	3915.9
995.083	3894.88
995.379	3850.59
995.676	3846.52
995.972	3827.54
996.268	3811.04
996.565	3807.43
996.861	3812.85
997.157	3771.04
997.453	3759.29
997.749	3721.78
998.044	3722.23
998.34	3706.19
998.636	3708.45
998.932	3666.64
999.227	3629.35
999.523	3626.87
999.818	3616.7
1000.114	3595.46
1000.409	3558.62
1000.704	3511.62
1001	3503.93
1001.295	3503.71
1001.59	3464.39
1001.885	3479.75
1002.18	3432.75
1002.475	3426.2
1002.77	3415.57
1003.065	3353.2
1003.359	3371.28
1003.654	3302.58
1003.949	3337.84
1004.243	3275.92
1004.538	3279.31
1004.832	3274.11
1005.127	3222.58
1005.421	3266.2
1005.715	3199.76
1006.009	3216.26
1006.304	3139.42
1006.598	3134.68
1006.892	3152.76
1007.186	3106.43
1007.48	3097.84
1007.773	3072.08
1008.067	3051.74
1008.361	3005.64
1008.655	3056.94
1008.948	3004.74
1009.242	2975.59
1009.535	2957.96
1009.829	2935.59
1010.122	2917.28
1010.415	2923.16
1010.708	2878.41
1011.001	2866.44
1011.295	2810.62
1011.588	2870.73
1011.881	2839.54
1012.173	2843.39
1012.466	2762.26
1012.759	2762.03
1013.052	2744.63
1013.344	2727.23
1013.637	2712.09
1013.93	2714.58
1014.222	2719.55
1014.514	2649.27
1014.807	2653.79
1015.099	2667.12
1015.391	2656.5
1015.683	2624.63
1015.976	2592.32
1016.268	2552.55
1016.56	2540.79
1016.851	2536.28
1017.143	2522.04
1017.435	2529.72
1017.727	2473
1018.018	2456.28
1018.31	2454.7
1018.602	2444.75
1018.893	2406.11
1019.185	2420.35
1019.476	2397.3
1019.767	2399.1
1020.058	2344.42
1020.35	2317.75
1020.641	2317.07
1020.932	2282.27
1021.223	2284.3
1021.514	2234.81
1021.804	2252.89
1022.095	2257.19
1022.386	2207.02
1022.677	2193.23
1022.967	2177.19
1023.258	2185.1
1023.548	2161.37
1023.839	2164.99
1024.129	2116.85
1024.419	2146.45
1024.709	2105.1
1025	2104.87
1025.29	2056.29
1025.58	2046.34
1025.87	2044.99
1026.16	2050.64
1026.449	2045.89
1026.739	2009.28
1027.029	1979.23
1027.319	1965.67
1027.608	1942.84
1027.898	1928.83
1028.187	1956.86
1028.477	1952.34
1028.766	1896.97
1029.055	1886.8
1029.344	1879.12
1029.634	1853.58
1029.923	1851.32
1030.212	1826.24
1030.501	1829.85
1030.79	1799.57
1031.078	1796.18
1031.367	1767.26
1031.656	1739.69
1031.945	1748.05
1032.233	1731.1
1032.522	1741.49
1032.81	1711.44
1033.099	1703.75
1033.387	1699.23
1033.675	1708.5
1033.963	1641.84
1034.251	1666.92
1034.54	1644.77
1034.828	1637.32
1035.116	1645.23
1035.403	1587.6
1035.691	1562.29
1035.979	1576.3
1036.267	1539.01
1036.554	1578.11
1036.842	1546.24
1037.129	1529.97
1037.417	1511.9
1037.704	1541.72
1037.992	1525
1038.279	1461.73
1038.566	1516.19
1038.853	1516.19
1039.14	1516.19
