Data from 7415_FLMS001491_001.txt Node
Date: Thu Apr 19 16:29:39 BST 2018
User: hsy
Spectrometer: FLMS00149
Trigger mode: 0
Integration Time (sec): 1.000000E-2
Scans to average: 10
Electric dark correction enabled: true
Nonlinearity correction enabled: false
Boxcar width: 0
XAxis mode: Wavelengths
Number of Pixels in Spectrum: 2048
>>>>>Begin Spectral Data<<<<<
341.393	-0.24
341.776	-0.24
342.16	-0.24
342.543	-57.87
342.927	-89.28
343.31	-61.71
343.693	-61.03
344.077	-66.91
344.46	-73.68
344.843	-53.57
345.226	-54.93
345.61	-38.43
345.993	5.18
346.376	-6.57
346.759	24.17
347.142	36.37
347.525	50.15
347.908	35.24
348.291	70.27
348.674	85.18
349.057	110.27
349.44	137.84
349.823	143.03
350.206	192.3
350.588	236.14
350.971	233.43
351.354	239.75
351.737	274.33
352.119	284.72
352.502	290.83
352.884	318.85
353.267	317.04
353.65	336.93
354.032	319.98
354.414	328.11
354.797	365.17
355.179	339.64
355.562	366.08
355.944	366.3
356.326	359.98
356.709	369.69
357.091	378.51
357.473	391.84
357.855	388.9
358.238	392.29
358.62	368.11
359.002	385.74
359.384	372.86
359.766	394.1
360.148	369.92
360.53	382.57
360.912	382.35
361.294	369.02
361.676	396.13
362.057	391.84
362.439	378.06
362.821	381.67
363.203	372.63
363.584	373.99
363.966	352.07
364.348	380.31
364.729	366.53
365.111	375.12
365.493	392.74
365.874	372.63
366.256	349.58
366.637	366.3
367.019	378.96
367.4	364.27
367.781	368.34
368.163	374.44
368.544	359.3
368.925	354.55
369.306	395
369.688	373.31
370.069	361.11
370.45	380.09
370.831	360.65
371.212	381.44
371.593	367.21
371.974	367.43
372.355	369.92
372.736	366.53
373.117	398.39
373.498	386.87
373.879	381.22
374.26	363.14
374.641	362.24
375.021	394.33
375.402	377.38
375.783	403.82
376.163	398.39
376.544	400.43
376.925	406.3
377.305	396.13
377.686	369.47
378.066	399.07
378.447	393.87
378.827	391.39
379.208	411.73
379.588	405.4
379.968	421.44
380.349	413.99
380.729	403.82
381.109	400.2
381.489	409.69
381.87	416.02
382.25	432.29
382.63	432.52
383.01	435.45
383.39	431.61
383.77	430.93
384.15	427.09
384.53	441.1
384.91	437.94
385.29	462.12
385.67	443.36
386.049	458.05
386.429	451.5
386.809	459.63
387.189	463.48
387.568	461.89
387.948	463.93
388.328	465.28
388.707	464.15
389.087	481.56
389.466	497.15
389.846	493.31
390.225	481.33
390.605	471.39
390.984	481.1
391.363	480.88
391.743	507.32
392.122	498.28
392.501	515
392.881	517.49
393.26	519.97
393.639	497.83
394.018	505.74
394.397	541.67
394.776	530.82
395.155	528.33
395.534	541.89
395.913	537.37
396.292	537.15
396.671	532.4
397.05	546.41
397.429	564.49
397.808	565.17
398.186	579.18
398.565	549.8
398.944	587.09
399.323	585.28
399.701	573.53
400.08	566.52
400.458	586.19
400.837	586.41
401.215	612.17
401.594	594.32
401.972	596.58
402.351	592.96
402.729	605.62
403.107	631.38
403.486	631.83
403.864	642.91
404.242	627.09
404.62	641.55
404.999	665.73
405.377	649.46
405.755	667.76
406.133	676.8
406.511	681.78
406.889	684.04
407.267	694.43
407.645	719.74
408.023	725.62
408.401	726.07
408.779	755.22
409.156	751.83
409.534	748.44
409.912	752.51
410.29	758.16
410.667	788.89
411.045	794.99
411.422	802.68
411.8	803.13
412.178	841.77
412.555	854.43
412.933	867.08
413.31	852.62
413.687	888.78
414.065	884.03
414.442	913.63
414.819	893.3
415.197	928.78
415.574	936.46
415.951	950.92
416.328	962.22
416.705	963.58
417.082	975.55
417.46	985.72
417.837	999.51
418.214	1039.96
418.591	1009.68
418.967	1017.59
419.344	1035.89
419.721	1052.84
420.098	1044.7
420.475	1062.33
420.852	1080.86
421.228	1071.37
421.605	1126.74
421.982	1129.9
422.358	1119.73
422.735	1143.01
423.111	1110.01
423.488	1152.95
423.864	1172.16
424.241	1180.75
424.617	1220.74
424.994	1186.4
425.37	1235.43
425.746	1199.5
426.123	1252.16
426.499	1249.44
426.875	1268.2
427.251	1292.16
427.627	1299.39
428.003	1307.75
428.379	1334.64
428.756	1339.84
429.132	1389.33
429.507	1380.29
429.883	1421.19
430.259	1440.63
430.635	1439.04
431.011	1411.93
431.387	1487.4
431.763	1482.66
432.138	1495.77
432.514	1521.98
432.89	1524.47
433.265	1551.36
433.641	1581.87
434.016	1580.96
434.392	1610.11
434.767	1646.5
435.143	1616.67
435.518	1670.22
435.894	1665.25
436.269	1699.15
436.644	1733.27
437.02	1743.89
437.395	1790
437.77	1757.23
438.145	1808.3
438.52	1819.37
438.895	1848.98
439.271	1825.7
439.646	1842.42
440.021	1871.8
440.395	1871.8
440.77	1853.72
441.145	1907.96
441.52	1939.37
441.895	1924.23
442.27	1960.16
442.645	1923.1
443.019	1960.61
443.394	1948.41
443.769	1990.44
444.143	1987.5
444.518	2035.41
444.892	2034.96
445.267	2026.6
445.641	2050.55
446.016	2048.75
446.39	2067.5
446.764	2082.19
447.139	2098.46
447.513	2093.72
447.887	2132.36
448.262	2110.44
448.636	2161.74
449.01	2152.7
449.384	2183.43
449.758	2214.84
450.132	2250.77
450.506	2258.23
450.88	2262.07
451.254	2251.9
451.628	2312.69
452.002	2316.31
452.376	2326.03
452.75	2370.32
453.123	2386.14
453.497	2439.02
453.871	2457.55
454.244	2505
454.618	2514.04
454.992	2551.78
455.365	2560.37
455.739	2602.86
456.112	2599.69
456.486	2642.85
456.859	2680.37
457.232	2695.51
457.606	2720.14
457.979	2728.28
458.352	2831.1
458.725	2841.72
459.099	2863.41
459.472	2945.67
459.845	2952
460.218	2977.08
460.591	3032.67
460.964	2997.65
461.337	3039.68
461.71	3145.21
462.083	3168.26
462.456	3187.25
462.829	3192.22
463.201	3257.08
463.574	3240.8
463.947	3289.16
464.32	3368.03
464.692	3400.8
465.065	3432.44
465.438	3383.4
465.81	3470.63
466.183	3466.56
466.555	3582.72
466.928	3621.13
467.3	3610.29
467.672	3635.37
468.045	3739.55
468.417	3761.92
468.789	3742.03
469.161	3789.26
469.534	3843.27
469.906	3895.48
470.278	3942.71
470.65	4012.31
471.022	4088.47
471.394	4111.29
471.766	4156.49
472.138	4211.17
472.51	4319.65
472.882	4363.71
473.253	4378.18
473.625	4436.03
473.997	4532.97
474.369	4551.05
474.74	4600.54
475.112	4706.3
475.484	4733.42
475.855	4828.56
476.227	4882.12
476.598	5043.24
476.97	5062.9
477.341	5143.81
477.713	5172.73
478.084	5307.19
478.455	5404.82
478.827	5412.72
479.198	5651.81
479.569	5627.86
479.94	5756.67
480.311	5803.9
480.682	5932.49
481.053	6053.84
481.424	6139.26
481.795	6188.52
482.166	6315.07
482.537	6377.9
482.908	6584.22
483.279	6694.27
483.65	6795.06
484.021	6919.35
484.391	7023.08
484.762	7072.12
485.133	7127.71
485.503	7260.36
485.874	7436.4
486.244	7475.27
486.615	7687.69
486.985	7801.36
487.356	7980.12
487.726	8016.72
488.097	8278.64
488.467	8263.5
488.837	8470.72
489.207	8541
489.578	8709.81
489.948	8827.55
490.318	8931.28
490.688	9070.93
491.058	9209.91
491.428	9367.42
491.798	9456.46
492.168	9641.09
492.538	9754.08
492.908	9910.69
493.278	10113.62
493.648	10138.02
494.017	10273.61
494.387	10452.14
494.757	10510.67
495.126	10606.94
495.496	10695.75
495.866	10895.07
496.235	10999.92
496.605	11131.9
496.974	11250.99
497.344	11404.21
497.713	11500.02
498.082	11686.68
498.452	11799.68
498.821	11877.19
499.19	11934.59
499.559	12122.15
499.928	12161.47
500.298	12374.35
500.667	12545.87
501.036	12509.04
501.405	12746.54
501.774	12780.44
502.143	12907.67
502.512	12981.79
502.88	13143.82
503.249	13181.79
503.618	13294.55
503.987	13472.85
504.356	13576.8
504.724	13713.07
505.093	13794.65
505.462	13833.52
505.83	14043.68
506.199	14098.15
506.567	14291.59
506.936	14378.59
507.304	14603.67
507.672	14635.31
508.041	14778.35
508.409	14878.24
508.777	14973.38
509.145	15127.72
509.514	15222.41
509.882	15459.01
510.25	15465.34
510.618	15581.72
510.986	15590.08
511.354	15804.09
511.722	15980.13
512.09	16177.64
512.458	16177.19
512.826	16436.62
513.193	16391.42
513.561	16545.99
513.929	16642.94
514.297	16888.36
514.664	16956.6
515.032	17015.13
515.4	17181.23
515.767	17296.48
516.135	17443.37
516.502	17232.75
516.869	17698.05
517.237	17785.28
517.604	17752.97
517.972	17989.34
518.339	18138.27
518.706	18251.26
519.073	18244.93
519.44	18378.94
519.808	18696.67
520.175	18708.65
520.542	19045.13
520.909	19065.7
521.276	19113.16
521.643	19514.05
522.009	19441.96
522.376	19637.21
522.743	19764.66
523.11	20024.54
523.477	20201.04
523.843	20274.26
524.21	20486.9
524.577	20724.86
524.943	20869.27
525.31	21016.61
525.676	21255.47
526.043	21312.65
526.409	21416.82
526.776	21745.63
527.142	21924.61
527.508	21885.29
527.874	22103.59
528.241	22276.01
528.607	22405.72
528.973	22676.23
529.339	22599.17
529.705	22950.12
530.071	23137.68
530.437	23289.09
530.803	23442.76
531.169	23553.26
531.535	23554.85
531.901	23785.8
532.267	23794.61
532.632	24080.71
532.998	24109.86
533.364	24288.61
533.73	24317.09
534.095	24618.1
534.461	24631.88
534.826	24727.7
535.192	24916.39
535.557	25000.68
535.923	25011.31
536.288	25201.81
536.653	25413.78
537.019	25374.69
537.384	25609.71
537.749	25646.09
538.114	25753.88
538.479	25644.28
538.845	25976.25
539.21	25882.02
539.575	26004.27
539.94	26202.69
540.305	26290.37
540.67	26244.04
541.034	26472.96
541.399	26618.04
541.764	26466.18
542.129	26653.97
542.494	26756.57
542.858	26877.25
543.223	26800.19
543.587	27018.94
543.952	26970.8
544.316	27085.15
544.681	27146.84
545.045	27403.56
545.41	27359.94
545.774	27310.45
546.138	27451.47
546.503	27543.44
546.867	27678.13
547.231	27775.3
547.595	27806.49
547.959	27921.96
548.324	27904.56
548.688	28016.2
549.052	28038.57
549.416	28088.29
549.779	28182.97
550.143	28190.66
550.507	28445.57
550.871	28450.54
551.235	28510.2
551.599	28699.12
551.962	28735.5
552.326	28852.79
552.689	28894.14
553.053	28885.33
553.417	29070.86
553.78	29345.65
554.143	29300.91
554.507	29354.24
554.87	29552.43
555.234	29770.73
555.597	29616.38
555.96	29788.81
556.323	29956.26
556.686	29948.58
557.05	30224.28
557.413	30152.64
557.776	30239.64
558.139	30498.84
558.502	30619.52
558.865	30622.46
559.228	30900.87
559.59	31009.34
559.953	31037.14
560.316	31428.76
560.679	31421.76
561.041	31539.27
561.404	31634.18
561.767	31965.7
562.129	31841.18
562.492	32086.83
562.854	32142.64
563.217	32118.69
563.579	32235.52
563.941	32580.82
564.304	32769.97
564.666	33033.69
565.028	33009.51
565.39	33040.25
565.753	33242.5
566.115	33398.66
566.477	33544.41
566.839	33709.83
567.201	34003.84
567.563	33959.09
567.925	34254.68
568.287	34374.22
568.648	34383.49
569.01	34739.41
569.372	35106.18
569.734	34893.31
570.095	35214.43
570.457	35455.55
570.819	35530.58
571.18	35718.82
571.542	35834.52
571.903	35898.93
572.265	36187.51
572.626	36408.52
572.987	36530.32
573.349	36727.16
573.71	36980.26
574.071	37156.52
574.432	37250.76
574.794	37540.69
575.155	37551.54
575.516	37525.55
575.877	37893.9
576.238	37921.02
576.599	38238.08
576.96	38271.75
577.32	38514.91
577.681	38793.09
578.042	38995.57
578.403	39028.56
578.763	39204.38
579.124	39398.72
579.485	39752.84
579.845	39941.53
580.206	40145.37
580.566	40152.6
580.927	40315.31
581.287	40552.14
581.648	40641.18
582.008	40894.96
582.368	40933.37
582.728	41166.36
583.089	41342.63
583.449	41653.13
583.809	41843.63
584.169	42125.66
584.529	42115.71
584.889	42653.78
585.249	42608.13
585.609	42678.19
585.969	43052.64
586.329	43220.77
586.688	43532.85
587.048	43886.74
587.408	43929.45
587.768	44194.53
588.127	44315.66
588.487	44606.95
588.846	45194.73
589.206	45070.89
589.565	45364.67
589.925	45845.33
590.284	46053.69
590.643	46160.58
591.003	46507.01
591.362	46954.46
591.721	47162.36
592.08	47236.03
592.44	47745.4
592.799	47883.25
593.158	47955.11
593.517	48184.71
593.876	48562.1
594.235	48679.16
594.593	48926.61
594.952	49298.8
595.311	49440.49
595.67	49794.38
596.029	50091.78
596.387	50288.38
596.746	50571.76
597.104	50642.72
597.463	50746.45
597.822	51177.17
598.18	51269.37
598.538	51411.97
598.897	51863.93
599.255	51708.91
599.613	52378.04
599.972	52357.48
600.33	52492.16
600.688	52666.17
601.046	52868.2
601.404	53180.96
601.762	53342.76
602.12	53586.37
602.478	53789.08
602.836	53893.71
603.194	53924.22
603.552	54107.49
603.91	54133.48
604.268	54463.19
604.625	54544.09
604.983	54846.91
605.341	54793.8
605.698	55113.79
606.056	55351.98
606.413	55368.25
606.771	55568.47
607.128	55691.4
607.485	55758.29
607.843	55870.16
608.2	56034.22
608.557	56242.35
608.914	56223.14
609.272	56466.3
609.629	56648.44
609.986	56837.36
610.343	56841.66
610.7	57130.69
611.057	57071.25
611.414	57059.95
611.771	57319.83
612.127	57454.07
612.484	57504.46
612.841	57718.02
613.198	57648.87
613.554	57714.4
613.911	58003.21
614.267	58068.97
614.624	58118.23
614.98	58241.62
615.337	58420.14
615.693	58485.91
616.05	58504.44
616.406	58699.01
616.762	58681.83
617.118	58785.33
617.475	58777.42
617.831	58992.79
618.187	59070.75
618.543	59089.05
618.899	59293.57
619.255	59221.93
619.611	59243.85
619.967	59453.79
620.323	59550.74
620.678	59456.5
621.034	59519.78
621.39	59535.37
621.746	59571.3
622.101	59867.11
622.457	59697.17
622.812	59876.6
623.168	59922.03
623.523	59948.47
623.879	59993.21
624.234	59934.68
624.589	60006.32
624.945	60037.96
625.3	60091.29
625.655	60137.16
626.01	60162.25
626.365	60164.05
626.72	60132.87
627.075	60106.65
627.43	60231.85
627.785	60183.94
628.14	60263.03
628.495	60267.1
628.85	60277.72
629.205	60268.68
629.559	60379.87
629.914	60230.94
630.269	60326.99
630.623	60213.32
630.978	60108.91
631.332	60360.43
631.687	60361.34
632.041	60308.46
632.396	60326.54
632.75	60237.05
633.104	60297.84
633.459	60192.98
633.813	60197.73
634.167	60171.51
634.521	60277.05
634.875	60185.07
635.229	60155.24
635.583	60045.86
635.937	60056.26
636.291	60086.54
636.645	60096.71
636.999	59987.34
637.352	60109.82
637.706	59928.58
638.06	60014.68
638.413	59997.28
638.767	59863.27
639.121	59973.1
639.474	59844.51
639.828	59884.29
640.181	59863.27
640.534	59940.1
640.888	59840.9
641.241	59751.41
641.594	59730.39
641.947	59776.72
642.301	59739.88
642.654	59817.17
643.007	59630.51
643.36	59682.71
643.713	59593.45
644.066	59707.79
644.419	59515.94
644.771	59373.11
645.124	59088.38
645.477	59157.3
645.83	58998.89
646.182	58934.48
646.535	58908.04
646.888	58908.27
647.24	58842.28
647.593	59011.99
647.945	58870.75
648.298	58814.94
648.65	58696.3
649.002	58588.95
649.355	58664.21
649.707	58595.96
650.059	58601.61
650.411	58889.28
650.763	58935.61
651.115	59260.57
651.467	59138.32
651.819	59220.12
652.171	59094.93
652.523	59058.55
652.875	59076.17
653.227	58961.83
653.578	59132.44
653.93	59074.82
654.282	59010.64
654.633	58915.27
654.985	58938.1
655.337	59004.54
655.688	58974.25
656.039	58956.4
656.391	58812.22
656.742	58806.8
657.094	58822.62
657.445	58948.49
657.796	58858.55
658.147	58719.35
658.498	58854.71
658.849	58858.1
659.2	58809.74
659.551	58645.9
659.902	58866.01
660.253	58707.82
660.604	58758.44
660.955	58658.56
661.306	58734.94
661.656	58633.47
662.007	58615.39
662.358	58625.56
662.708	58657.65
663.059	58590.76
663.409	58528.84
663.76	58649.07
664.11	58633.25
664.461	58679.35
664.811	58580.59
665.161	58602.51
665.511	58506.24
665.862	58507.6
666.212	58641.38
666.562	58622.17
666.912	58464.89
667.262	58476.19
667.612	58408.17
667.962	58494.49
668.312	58449.97
668.662	58599.12
669.011	58426.92
669.361	58447.04
669.711	58480.03
670.06	58380.82
670.41	58401.84
670.76	58379.24
671.109	58527.71
671.459	58392.57
671.808	58418.79
672.157	58393.48
672.507	58256.31
672.856	58332.92
673.205	58364.1
673.554	58449.75
673.904	58331.11
674.253	58490.88
674.602	58357.55
674.951	58026.71
675.3	57965.24
675.649	58329.98
675.998	58387.6
676.346	58360.26
676.695	58373.82
677.044	58177.21
677.393	58294.72
677.741	58300.37
678.09	58215.4
678.438	58180.15
678.787	58250.21
679.135	58280.26
679.484	58082.75
679.832	58273.71
680.181	58153.71
680.529	58217.66
680.877	58069.87
681.225	58070.32
681.573	58236.19
681.922	58082.75
682.27	57983.55
682.618	57993.72
682.966	57931.12
683.314	58022.42
683.661	57988.29
684.009	57866.94
684.357	57820.84
684.705	57753.72
685.053	57814.51
685.4	57742.87
685.748	57650.67
686.095	57713.5
686.443	57537
686.79	57501.07
687.138	57583.33
687.485	57528.87
687.832	57465.14
688.18	57497.01
688.527	57354.86
688.874	57359.16
689.221	57410.91
689.568	57230.8
689.915	57165.49
690.262	57223.11
690.609	57136.79
690.956	57066.51
691.303	57000.07
691.65	56941.77
691.997	56913.29
692.344	56825.16
692.69	56756.91
693.037	56847.08
693.383	56554.88
693.73	56749.45
694.077	56510.82
694.423	56557.14
694.769	56456.35
695.116	56500.2
695.462	56309.24
695.808	56242.12
696.155	56343.82
696.501	56119.87
696.847	56170.49
697.193	55972.53
697.539	56075.12
697.885	55773.66
698.231	55838.52
698.577	55881.91
698.923	55820.21
699.269	55573.89
699.614	55533.44
699.96	55392.43
700.306	55482.37
700.651	55366.89
700.997	55284.41
701.342	55218.65
701.688	55151.98
702.033	55119.89
702.379	55123.28
702.724	54946.56
703.069	55080.8
703.415	54692.33
703.76	54843.29
704.105	54783.18
704.45	54634.26
704.795	54526.69
705.14	54512.9
705.485	54490.3
705.83	54296.19
706.175	54437.65
706.52	54297.77
706.865	54208.05
707.209	54178.45
707.554	54057.1
707.899	54161.95
708.243	53927.38
708.588	53872.92
708.932	53826.14
709.277	53895.29
709.621	53692.59
709.966	53438.13
710.31	53611.91
710.654	53379.6
710.998	53405.36
711.342	53386.38
711.687	53308.19
712.031	53232.71
712.375	53109.78
712.719	53055.77
713.063	52954.75
713.407	53127.18
713.75	52953.4
714.094	52953.17
714.438	52791.37
714.782	52796.56
715.125	52638.83
715.469	52815.77
715.812	52430.02
716.156	52490.13
716.499	52409.91
716.843	52494.42
717.186	52196.58
717.53	52494.65
717.873	52309.57
718.216	52152.51
718.559	52197.26
718.902	51899.19
719.246	51982.35
719.589	51868
719.932	51764.95
720.275	51827.55
720.617	51813.76
720.96	51729.02
721.303	51764.73
721.646	51793.65
721.989	51489.71
722.331	51530.38
722.674	51398.63
723.016	51376.71
723.359	51328.35
723.701	51367.67
724.044	51203.16
724.386	51110.73
724.729	51106.66
725.071	51092.65
725.413	51057.17
725.755	50966.56
726.097	50889.5
726.439	50757.07
726.782	50735.15
727.124	50920
727.465	50841.13
727.807	50604.53
728.149	50704.19
728.491	50500.58
728.833	50478.21
729.175	50515.49
729.516	50477.08
729.858	50348.27
730.199	50362.5
730.541	50247.25
730.882	50189.4
731.224	50295.39
731.565	50078.22
731.906	50118.22
732.248	50189.17
732.589	49849.3
732.93	49912.57
733.271	50035.28
733.612	49830.31
733.953	49944.44
734.294	49893.82
734.635	49694.72
734.976	49871.22
735.317	49610.88
735.658	49623.31
735.999	49480.04
736.339	49522.53
736.68	49521.62
737.021	49418.35
737.361	49212.03
737.702	49555.07
738.042	49327.73
738.383	49462.87
738.723	49413.6
739.063	49221.29
739.404	49280.72
739.744	49205.47
740.084	49033.5
740.424	49075.31
740.764	49020.39
741.104	49128.19
741.444	48911.02
741.784	48797.8
742.124	48922.99
742.464	48848.42
742.804	48734.52
743.143	48494.53
743.483	48698.59
743.823	48535.88
744.162	48680.74
744.502	48590.12
744.841	48453.4
745.181	48661.76
745.52	48455.89
745.86	48392.84
746.199	48428.54
746.538	48333.4
746.877	48441.65
747.216	48312.16
747.556	48238.49
747.895	48249.34
748.234	48097.03
748.573	48041.89
748.911	47951.04
749.25	47965.05
749.589	47762.8
749.928	47890.93
750.267	47831.04
750.605	47855.9
750.944	47797.37
751.283	47558.28
751.621	47663.37
751.96	47243.94
752.298	47377.05
752.636	47385.86
752.975	47192.87
753.313	47100.22
753.651	47367.33
753.989	47097.05
754.327	47020.67
754.666	46650.28
755.004	46946.1
755.342	46843.73
755.679	46735.03
756.017	46470.18
756.355	46596.27
756.693	46418.65
757.031	46580.68
757.368	46165.1
757.706	46338.43
758.044	46056.18
758.381	46010.08
758.719	46071.77
759.056	45967.14
759.394	45734.15
759.731	45464.1
760.068	45485.8
760.405	45498.9
760.743	45298
761.08	45234.5
761.417	45021.63
761.754	45117.9
762.091	44952.25
762.428	44472.94
762.765	44459.16
763.102	44499.38
763.438	44453.05
763.775	44193.85
764.112	44191.82
764.449	44216
764.785	44030.92
765.122	43757.71
765.458	43611.72
765.795	43477.71
766.131	43499.86
766.467	43420.31
766.804	42980.32
767.14	43035.01
767.476	42839.09
767.812	42702.82
768.148	42812.65
768.485	42586.89
768.821	42360.45
769.157	42209.27
769.492	42079.11
769.828	41941.03
770.164	41732.9
770.5	41598.89
770.836	41474.6
771.171	41403.19
771.507	41287.71
771.842	41043.2
772.178	40955.97
772.513	40798.69
772.849	40729.31
773.184	40507.85
773.519	40360.73
773.855	40334.52
774.19	40187.18
774.525	39894.3
774.86	39870.58
775.195	39846.17
775.53	39702.9
775.865	39458.84
776.2	39211.38
776.535	39021.78
776.87	39038.28
777.205	38820.66
777.539	38595.58
777.874	38793.32
778.209	38285.08
778.543	38397.39
778.878	38141.13
779.212	38021.81
779.547	37988.82
779.881	37813.23
780.215	37526.46
780.55	37618.21
780.884	37279.91
781.218	37343.86
781.552	37159.46
781.886	37020.93
782.22	36833.14
782.554	36752.69
782.888	36426.82
783.222	36285.59
783.556	36020.51
783.889	36030.68
784.223	35758.37
784.557	35673.85
784.89	35888.76
785.224	35443.57
785.557	35350.47
785.891	35291.49
786.224	35302.11
786.558	35223.24
786.891	35068.89
787.224	34732.86
787.557	34697.38
787.891	34488.57
788.224	34405.86
788.557	34442.47
788.89	34384.17
789.223	34267.11
789.556	33872.54
789.888	33802.94
790.221	33637.75
790.554	33481.82
790.887	33612.66
791.219	33405.44
791.552	33334.02
791.884	33236.17
792.217	33085.22
792.549	32866.69
792.882	32741.95
793.214	32627.6
793.546	32614.72
793.879	32418.79
794.211	32090.67
794.543	32373.6
794.875	32289.53
795.207	32125.69
795.539	32003.44
795.871	32087.28
796.203	31789.43
796.535	31587.86
796.867	31532.72
797.198	31329.33
797.53	31415.88
797.862	31060.64
798.193	31169.79
798.525	31130.01
798.856	31151.71
799.188	30668.56
799.519	30682.79
799.85	30497.26
800.182	30445.51
800.513	30482.12
800.844	30040.1
801.175	30284.39
801.506	30247.33
801.837	30065.41
802.168	29969.82
802.499	29947.9
802.83	29672.43
803.161	29608.47
803.491	29740.22
803.822	29742.71
804.153	29495.71
804.483	29304.53
804.814	29143.85
805.145	29227.92
805.475	29284.64
805.805	29040.8
806.136	29071.99
806.466	28863.86
806.796	28846.46
807.126	28651.89
807.457	28648.05
807.787	28663.64
808.117	28457.77
808.447	28350.2
808.777	28477.66
809.107	28226.59
809.436	28151.11
809.766	28166.7
810.096	28160.38
810.426	27930.78
810.755	28037.44
811.085	27854.39
811.414	27995.86
811.744	27754.74
812.073	27672.48
812.403	27548.87
812.732	27479.94
813.061	27701.4
813.39	27239.5
813.719	27377.35
814.049	27366.05
814.378	27395.2
814.707	27066.17
815.036	27173.73
815.365	26908.43
815.693	26767.19
816.022	26766.06
816.351	26739.85
816.68	26621.88
817.008	26699.4
817.337	26481.78
817.665	26480.87
817.994	26524.94
818.322	26511.83
818.651	26235.68
818.979	26117.49
819.307	26263.02
819.636	26257.37
819.964	26079.75
820.292	26169.24
820.62	26119.75
820.948	26066.65
821.276	26119.07
821.604	25982.81
821.932	26110.26
822.259	25998.62
822.587	26095.57
822.915	25991.39
823.243	26035.01
823.57	25955.01
823.898	26098.96
824.225	25946.65
824.553	25988.46
824.88	25955.46
825.207	26025.06
825.535	25846.31
825.862	26037.49
826.189	25832.3
826.516	26183.03
826.843	26100.99
827.17	26206.53
827.497	26163.59
827.824	26115.23
828.151	26155.23
828.478	25981.68
828.805	26194.1
829.131	26028.91
829.458	26011.28
829.785	25785.3
830.111	26056.25
830.438	26067.32
830.764	26028.68
831.09	25899.42
831.417	25830.95
831.743	26126.76
832.069	26033.88
832.395	25777.16
832.722	26017.15
833.048	25925.41
833.374	26000.43
833.7	25856.48
834.026	25843.15
834.351	25719.08
834.677	25849.25
835.003	25750.95
835.329	25795.24
835.654	25746.88
835.98	25669.14
836.306	25742.36
836.631	25600.89
836.956	25714.34
837.282	25764.05
837.607	25555.92
837.932	25578.75
838.258	25549.14
838.583	25476.83
838.908	25340.79
839.233	25472.99
839.558	25360.22
839.883	25270.06
840.208	25162.26
840.533	25239.55
840.858	25223.96
841.182	25123.85
841.507	25183.73
841.832	25068.71
842.156	25081.36
842.481	25004.3
842.805	24826.68
843.13	24806.11
843.454	24810.18
843.778	24730.64
844.103	24661.03
844.427	24661.03
844.751	24561.37
845.075	24600.92
845.399	24474.6
845.723	24423.3
846.047	24435.28
846.371	24278.44
846.695	24104.21
847.019	24103.53
847.343	23911.45
847.666	23860.15
847.99	23731.34
848.313	23726.37
848.637	23662.87
848.96	23520.05
849.284	23513.49
849.607	23321.41
849.931	23199.6
850.254	23109.43
850.577	23035.09
850.9	22786.96
851.223	22889.78
851.546	22838.71
851.869	22616.57
852.192	22618.15
852.515	22410.47
852.838	22365.27
853.161	22349.45
853.483	22228.1
853.806	22223.13
854.129	22198.72
854.451	22047.32
854.774	21883.7
855.096	21891.61
855.419	21752.41
855.741	21726.19
856.063	21683.71
856.385	21639.64
856.708	21529.59
857.03	21505.86
857.352	21311.97
857.674	21400.78
857.996	21306.54
858.318	21074.23
858.64	21104.29
858.961	21047.57
859.283	21068.81
859.605	20917.63
859.926	21010.05
860.248	20927.12
860.57	20781.13
860.891	20691.65
861.212	20708.82
861.534	20693.68
861.855	20701.36
862.176	20594.47
862.498	20596.73
862.819	20608.48
863.14	20508.83
863.461	20382.5
863.782	20422.95
864.103	20335.5
864.424	20298.66
864.745	20432.89
865.065	20088.95
865.386	20233.58
865.707	20109.29
866.027	20228.15
866.348	20177.99
866.668	20074.94
866.989	20061.38
867.309	19870.88
867.63	19865.68
867.95	19975.28
868.27	19793.82
868.59	19884.43
868.91	19836.98
869.23	19820.93
869.55	19771.9
869.87	19726.7
870.19	19648.51
870.51	19629.75
870.83	19570.32
871.15	19517.89
871.469	19435.18
871.789	19572.8
872.109	19529.64
872.428	19408.29
872.748	19456.2
873.067	19353.15
873.386	19448.97
873.706	19331
874.025	19318.8
874.344	19225.02
874.663	19300.72
874.982	19211.46
875.301	19201.06
875.62	19044.23
875.939	19071.57
876.258	19052.59
876.577	18823.9
876.896	19010.56
877.214	18978.7
877.533	18858.93
877.852	18820.28
878.17	18916.55
878.489	18920.39
878.807	18760.4
879.125	18863.22
879.444	18775.76
879.762	18649.44
880.08	18786.16
880.398	18625.03
880.716	18644.02
881.034	18648.99
881.352	18545.71
881.67	18475.43
881.988	18425.94
882.306	18298.26
882.624	18376.23
882.941	18334.19
883.259	18340.07
883.577	18363.57
883.894	18256.23
884.212	18223.91
884.529	18055.78
884.846	18130.58
885.164	17965.39
885.481	17961.55
885.798	17938.27
886.115	17903.24
886.432	17938.05
886.75	17795.45
887.067	17883.58
887.383	17835.22
887.7	17759.97
888.017	17626.87
888.334	17573.54
888.651	17590.48
888.967	17559.52
889.284	17454.67
889.6	17434.78
889.917	17359.53
890.233	17306.88
890.55	17299.87
890.866	17191.62
891.182	17259.65
891.498	17117.73
891.815	17010.16
892.131	17063.04
892.447	16974.68
892.763	16886.55
893.079	16901.46
893.395	16849.71
893.71	16810.84
894.026	16834.12
894.342	16668.7
894.657	16589.15
894.973	16501.25
895.289	16527.46
895.604	16484.98
895.92	16437.52
896.235	16353.91
896.55	16390.29
896.865	16182.84
897.181	16261.25
897.496	16198.66
897.811	16140.8
898.126	16035.95
898.441	16060.58
898.756	15926.12
899.071	15908.72
899.386	15903.07
899.7	15734.49
900.015	15728.61
900.33	15591.21
900.644	15542.85
900.959	15502.86
901.273	15508.96
901.588	15425.34
901.902	15381.95
902.216	15284.33
902.531	15287.04
902.845	15209.98
903.159	15086.14
903.473	15048.86
903.787	15001.4
904.101	14889.99
904.415	14977.67
904.729	14990.78
905.042	14875.75
905.356	14765.93
905.67	14768.41
905.984	14642.99
906.297	14582.43
906.611	14539.72
906.924	14442.32
907.237	14422.21
907.551	14467.85
907.864	14277.35
908.177	14274.86
908.491	14228.31
908.804	14095.21
909.117	14102.21
909.43	13925.5
909.743	13969.56
910.056	13985.38
910.368	13837.81
910.681	13764.82
910.994	13772.73
911.307	13713.3
911.619	13548.33
911.932	13597.14
912.244	13432.18
912.557	13455.9
912.869	13413.42
913.181	13339.75
913.494	13351.5
913.806	13202.35
914.118	13227.89
914.43	13159.87
914.742	13102.92
915.054	12969.59
915.366	12987.22
915.678	12950.61
915.99	12816.82
916.302	12750.39
916.613	12721.01
916.925	12742.02
917.236	12634.23
917.548	12585.42
917.859	12535.93
918.171	12488.47
918.482	12401.92
918.794	12428.81
919.105	12328.25
919.416	12197.86
919.727	12217.74
920.038	12159.44
920.349	12066.56
920.66	12027.24
920.971	11996.73
921.282	11969.84
921.593	11884.87
921.903	11825.44
922.214	11910.18
922.525	11793.57
922.835	11789.51
923.146	11652.11
923.456	11562.17
923.767	11514.49
924.077	11509.29
924.387	11526.91
924.697	11437.88
925.008	11441.27
925.318	11290.54
925.628	11279.69
925.938	11250.09
926.248	11123.54
926.558	11138.68
926.867	11081.05
927.177	11039.02
927.487	11027.72
927.796	10915.41
928.106	10909.98
928.416	10848.51
928.725	10817.78
929.034	10813.26
929.344	10754.51
929.653	10629.99
929.962	10531.23
930.271	10532.59
930.581	10561.74
930.89	10406.49
931.199	10388.87
931.508	10342.54
931.817	10310.45
932.125	10340.05
932.434	10236.1
932.743	10166.05
933.051	10061.87
933.36	10160.17
933.669	10058.48
933.977	10043.56
934.286	9997.69
934.594	9999.04
934.902	9895.54
935.21	9785.72
935.519	9755.66
935.827	9744.81
936.135	9719.05
936.443	9703.91
936.751	9685.61
937.059	9591.15
937.367	9504.82
937.674	9485.39
937.982	9496.23
938.29	9414.43
938.597	9424.6
938.905	9285.17
939.213	9270.02
939.52	9237.48
939.827	9311.15
940.135	9150.48
940.442	9220.53
940.749	9057.15
941.056	9107.32
941.363	9024.61
941.67	8992.07
941.977	8898.73
942.284	8854.67
942.591	8805.4
942.898	8806.76
943.205	8744.84
943.511	8733.77
943.818	8706.65
944.125	8624.17
944.431	8597.27
944.738	8543.04
945.044	8622.58
945.35	8535.58
945.657	8451.74
945.963	8437.05
946.269	8450.39
946.575	8409.93
946.881	8300.11
947.187	8332.2
947.493	8294.46
947.799	8292.88
948.105	8133.78
948.41	8129.49
948.716	8097.17
949.022	8098.76
949.327	8052.2
949.633	7918.2
949.938	7993
950.244	8004.07
950.549	7891.53
950.854	7850.63
951.16	7752.1
951.465	7778.31
951.77	7745.54
952.075	7691.76
952.38	7729.95
952.685	7595.94
952.99	7597.75
953.294	7604.53
953.599	7535.15
953.904	7463.07
954.209	7456.74
954.513	7466
954.818	7419.45
955.122	7443.86
955.426	7361.15
955.731	7316.18
956.035	7263.07
956.339	7278.89
956.643	7254.03
956.948	7167.93
957.252	7146.01
957.556	7135.62
957.86	7068.5
958.163	7063.98
958.467	7022.85
958.771	6955.96
959.075	6958.45
959.378	6885.68
959.682	6892.46
959.985	6822.18
960.289	6810.43
960.592	6777.66
960.896	6770.88
961.199	6717.55
961.502	6712.8
961.805	6721.84
962.108	6622.64
962.411	6669.42
962.714	6520.94
963.017	6567.5
963.32	6554.62
963.623	6494.05
963.926	6495.18
964.228	6431.46
964.531	6463.54
964.833	6421.29
965.136	6331.8
965.438	6374.51
965.741	6306.03
966.043	6259.03
966.345	6191.69
966.648	6240.5
966.95	6176.77
967.252	6126.38
967.554	6103.1
967.856	6169.09
968.158	6022.65
968.46	6047.06
968.761	6027.4
969.063	5980.85
969.365	5991.01
969.666	5939.26
969.968	5909.89
970.269	5844.13
970.571	5893.16
970.872	5860.4
971.174	5823.79
971.475	5775.88
971.776	5757.35
972.077	5725.94
972.378	5703.34
972.679	5647.75
972.98	5674.64
973.281	5637.8
973.582	5584.92
973.883	5558.03
974.183	5542.89
974.484	5503.12
974.785	5473.06
975.085	5500.86
975.386	5507.41
975.686	5429.22
975.986	5396.91
976.287	5360.75
976.587	5363.46
976.887	5301.09
977.187	5279.85
977.487	5313.52
977.787	5208.89
978.087	5230.36
978.387	5224.71
978.687	5204.59
978.987	5201.88
979.286	5135.9
979.586	5159.4
979.885	5070.14
980.185	5033.53
980.484	5024.03
980.784	5007.31
981.083	4953.98
981.382	4948.56
981.682	4945.39
981.981	4956.01
982.28	4883.93
982.579	4826.07
982.878	4838.5
983.177	4845.28
983.475	4822.01
983.774	4752.4
984.073	4759.86
984.372	4684.61
984.67	4755.79
984.969	4693.87
985.267	4650.94
985.566	4653.42
985.864	4657.72
986.162	4597.83
986.461	4547.89
986.759	4540.66
987.057	4512.64
987.355	4499.3
987.653	4525.52
987.951	4452.3
988.249	4464.95
988.547	4405.07
988.844	4408.01
989.142	4340.66
989.44	4354.67
989.737	4353.54
990.035	4351.96
990.332	4279.42
990.63	4295.01
990.927	4285.07
991.224	4280.78
991.521	4205.98
991.819	4179.99
992.116	4186.77
992.413	4173.44
992.71	4137.05
993.006	4139.76
993.303	4111.06
993.6	4071.97
993.897	4076.04
994.193	4027.22
994.49	4016.38
994.787	4031.52
995.083	3961.24
995.379	3951.97
995.676	3961.46
995.972	3924.18
996.268	3879.43
996.565	3881.01
996.861	3873.56
997.157	3830.62
997.453	3803.28
997.749	3820.45
998.044	3769.38
998.34	3752.43
998.636	3753.11
998.932	3706.56
999.227	3688.02
999.523	3678.53
999.818	3661.36
1000.114	3625.2
1000.409	3639.66
1000.704	3600.12
1001	3584.07
1001.295	3571.64
1001.59	3560.12
1001.885	3518.31
1002.18	3476.5
1002.475	3470.63
1002.77	3441.48
1003.065	3427.69
1003.359	3415.04
1003.654	3369.39
1003.949	3381.59
1004.243	3355.6
1004.538	3331.65
1004.832	3314.93
1005.127	3288.94
1005.421	3270.86
1005.715	3272.44
1006.009	3231.99
1006.304	3221.14
1006.598	3181.82
1006.892	3190.41
1007.186	3164.42
1007.48	3134.37
1007.773	3113.35
1008.067	3056.85
1008.361	3072.67
1008.655	3061.37
1008.948	3019.12
1009.242	3029.51
1009.535	3036.29
1009.829	2984.77
1010.122	2978.66
1010.415	2950.42
1010.708	2921.26
1011.001	2919.01
1011.295	2862.96
1011.588	2896.86
1011.881	2883.75
1012.173	2864.54
1012.466	2832.91
1012.759	2812.57
1013.052	2839.91
1013.344	2765.11
1013.637	2750.87
1013.93	2758.78
1014.222	2735.96
1014.514	2691.44
1014.807	2707.49
1015.099	2680.59
1015.391	2681.27
1015.683	2662.29
1015.976	2628.84
1016.268	2611.44
1016.56	2576.42
1016.851	2625.45
1017.143	2546.59
1017.435	2506.59
1017.727	2522.63
1018.018	2485.8
1018.31	2496.19
1018.602	2457.1
1018.893	2468.85
1019.185	2407.38
1019.476	2411.9
1019.767	2396.76
1020.058	2371.67
1020.35	2372.13
1020.641	2350.43
1020.932	2342.3
1021.223	2305.69
1021.514	2309.76
1021.804	2270.43
1022.095	2237.67
1022.386	2238.8
1022.677	2210.32
1022.967	2231.79
1023.258	2181.4
1023.548	2189.98
1023.839	2186.82
1024.129	2151.12
1024.419	2138.01
1024.709	2084.9
1025	2123.77
1025.29	2119.48
1025.58	2079.71
1025.87	2032.02
1026.16	2050.33
1026.449	2038.35
1026.739	2029.31
1027.029	2001.97
1027.319	1973.72
1027.608	1978.24
1027.898	1979.14
1028.187	1957.45
1028.477	1929.2
1028.766	1936.66
1029.055	1888.75
1029.344	1893.27
1029.634	1885.59
1029.923	1889.2
1030.212	1864.57
1030.501	1859.82
1030.79	1846.27
1031.078	1795.42
1031.367	1813.95
1031.656	1792.03
1031.945	1757
1032.233	1754.97
1032.522	1725.59
1032.81	1732.14
1033.099	1711.13
1033.387	1702.54
1033.675	1698.02
1033.963	1637.46
1034.251	1686.95
1034.54	1632.49
1034.828	1651.24
1035.116	1647.85
1035.403	1586.84
1035.691	1610.11
1035.979	1598.14
1036.267	1582.32
1036.554	1564.01
1036.842	1589.1
1037.129	1592.26
1037.417	1551.58
1037.704	1532.37
1037.992	1521.3
1038.279	1512.71
1038.566	1481.3
1038.853	1481.3
1039.14	1481.3
