Data from 7415_FLMS001491_010.txt Node
Date: Thu Apr 19 16:30:00 BST 2018
User: hsy
Spectrometer: FLMS00149
Trigger mode: 0
Integration Time (sec): 1.000000E-2
Scans to average: 10
Electric dark correction enabled: true
Nonlinearity correction enabled: false
Boxcar width: 0
XAxis mode: Wavelengths
Number of Pixels in Spectrum: 2048
>>>>>Begin Spectral Data<<<<<
341.393	-11.2
341.776	-11.2
342.16	-11.2
342.543	-57.3
342.927	-60.92
343.31	-49.84
343.693	-66.34
344.077	-72.22
344.46	-60.92
344.843	-50.52
345.226	-42.16
345.61	-33.35
345.993	-1.26
346.376	-13.01
346.759	-3.52
347.142	21.12
347.525	66.09
347.908	27.89
348.291	80.1
348.674	88.01
349.057	109.93
349.44	132.52
349.823	165.97
350.206	163.03
350.588	226.31
350.971	249.58
351.354	269.47
351.737	252.75
352.119	276.25
352.502	314.21
352.884	307.21
353.267	294.33
353.65	330.26
354.032	350.37
354.414	344.95
354.797	353.31
355.179	364.38
355.562	375.91
355.944	396.02
356.326	370.94
356.709	354.21
357.091	378.62
357.473	388.11
357.855	390.15
358.238	387.21
358.62	399.41
359.002	379.98
359.384	388.79
359.766	408.9
360.148	398.96
360.53	371.16
360.912	384.72
361.294	370.48
361.676	371.61
362.057	383.14
362.439	377.26
362.821	381.56
363.203	363.93
363.584	379.3
363.966	353.76
364.348	364.61
364.729	359.64
365.111	376.59
365.493	370.03
365.874	363.03
366.256	385.4
366.637	353.54
367.019	375.23
367.4	385.4
367.781	368.22
368.163	364.38
368.544	374.33
368.925	386.98
369.306	371.39
369.688	365.29
370.069	373.87
370.45	358.28
370.831	382.91
371.212	385.63
371.593	372.74
371.974	371.39
372.355	399.41
372.736	356.02
373.117	400.31
373.498	392.63
373.879	394.66
374.26	364.16
374.641	377.72
375.021	364.61
375.402	390.6
375.783	410.94
376.163	393.08
376.544	399.64
376.925	394.44
377.305	385.85
377.686	380.88
378.066	410.03
378.447	396.02
378.827	383.37
379.208	420.88
379.588	399.18
379.968	416.36
380.349	402.12
380.729	426.53
381.109	403.7
381.489	427.21
381.87	422.69
382.25	425.17
382.63	437.15
383.01	429.47
383.39	435.57
383.77	434.21
384.15	447.77
384.53	442.57
384.91	429.92
385.29	455
385.67	453.42
386.049	465.85
386.429	458.62
386.809	456.81
387.189	470.37
387.568	452.06
387.948	448.9
388.328	454.78
388.707	472.18
389.087	469.47
389.466	451.61
389.846	483.48
390.225	485.74
390.605	481.22
390.984	496.81
391.363	489.13
391.743	495
392.122	506.98
392.501	519.63
392.881	551.72
393.26	523.7
393.639	507.66
394.018	534.77
394.397	533.19
394.776	531.16
395.155	533.19
395.534	529.35
395.913	530.93
396.292	535.45
396.671	562.12
397.05	557.6
397.429	570.71
397.808	563.7
398.186	567.32
398.565	566.41
398.944	555.79
399.323	573.42
399.701	609.12
400.08	582
400.458	569.8
400.837	593.76
401.215	600.99
401.594	584.94
401.972	623.13
402.351	619.52
402.729	617.48
403.107	626.98
403.486	627.65
403.864	641.66
404.242	625.85
404.62	653.64
404.999	655.22
405.377	645.51
405.755	664.49
406.133	683.24
406.511	696.8
406.889	663.81
407.267	689.12
407.645	726.63
408.023	706.29
408.401	715.56
408.779	739.06
409.156	744.49
409.534	730.48
409.912	744.71
410.29	785.16
410.667	786.07
411.045	768.89
411.422	755.56
411.8	804.6
412.178	835.11
412.555	826.97
412.933	832.39
413.31	861.09
413.687	871.71
414.065	895.89
414.442	876.91
414.819	884.37
415.197	914.2
415.574	914.43
415.951	945.61
416.328	927.98
416.705	948.55
417.082	934.54
417.46	963.92
417.837	1003.01
418.214	996.46
418.591	982.67
418.967	979.06
419.344	1019.06
419.721	1026.29
420.098	1048.21
420.475	1055.21
420.852	1054.53
421.228	1076
421.605	1056.57
421.982	1096.12
422.358	1085.04
422.735	1104.7
423.111	1108.77
423.488	1135.66
423.864	1144.02
424.241	1162.33
424.617	1146.51
424.994	1154.19
425.37	1191.71
425.746	1194.42
426.123	1244.13
426.499	1210.01
426.875	1211.14
427.251	1253.85
427.627	1262.89
428.003	1301.53
428.379	1285.94
428.756	1306.28
429.132	1335.43
429.507	1331.82
429.883	1341.08
430.259	1383.57
430.635	1406.16
431.011	1400.06
431.387	1452.72
431.763	1469.89
432.138	1437.35
432.514	1470.57
432.89	1484.81
433.265	1490
433.641	1540.4
434.016	1534.52
434.392	1576.1
434.767	1598.47
435.143	1586.95
435.518	1602.99
435.894	1628.53
436.269	1683.67
436.644	1688.64
437.02	1689.09
437.395	1704.46
437.77	1698.81
438.145	1762.31
438.52	1750.34
438.895	1778.81
439.271	1755.76
439.646	1793.05
440.021	1837.34
440.395	1853.84
440.77	1823.1
441.145	1862.65
441.52	1863.33
441.895	1860.16
442.27	1894.74
442.645	1885.02
443.019	1880.95
443.394	1912.36
443.769	1937
444.143	1934.29
444.518	1976.54
444.892	1944.68
445.267	1962.99
445.641	1980.61
446.016	1995.3
446.39	1993.72
446.764	2014.28
447.139	2012.25
447.513	2055.41
447.887	2059.93
448.262	2034.17
448.636	2071.91
449.01	2091.12
449.384	2139.7
449.758	2109.87
450.132	2171.34
450.506	2165.47
450.88	2193.04
451.254	2204.33
451.628	2231
452.002	2237.33
452.376	2277.55
452.75	2288.85
453.123	2297.44
453.497	2341.05
453.871	2368.4
454.244	2401.84
454.618	2388.28
454.992	2458.11
455.365	2433.71
455.739	2529.07
456.112	2539.69
456.486	2529.52
456.859	2548.05
457.232	2624.21
457.606	2634.83
457.979	2664.44
458.352	2725.68
458.725	2715.51
459.099	2798.22
459.472	2795.05
459.845	2833.02
460.218	2852.91
460.591	2891.32
460.964	2932.45
461.337	2930.64
461.71	3004.54
462.083	3040.47
462.456	3065.33
462.829	3037.99
463.201	3127.47
463.574	3157.76
463.947	3176.29
464.32	3218.77
464.692	3269.17
465.065	3251.54
465.438	3334.7
465.81	3404.76
466.183	3391.87
466.555	3464.64
466.928	3474.13
467.3	3478.43
467.672	3523.4
468.045	3584.64
468.417	3614.47
468.789	3614.92
469.161	3620.34
469.534	3726.55
469.906	3767.46
470.278	3801.58
470.65	3857.62
471.022	3932.2
471.394	3980.33
471.766	4037.73
472.138	4056.49
472.51	4116.6
472.882	4192.76
473.253	4218.97
473.625	4217.16
473.997	4377.38
474.369	4404.73
474.74	4438.17
475.112	4534.44
475.484	4560.2
475.855	4668
476.227	4726.08
476.598	4790.93
476.97	4827.77
477.341	4916.13
477.713	5044.49
478.084	5107.99
478.455	5227.98
478.827	5211.26
479.198	5403.12
479.569	5328.55
479.94	5528.32
480.311	5606.73
480.682	5715.43
481.053	5787.07
481.424	5929.21
481.795	6060.28
482.166	6128.98
482.537	6137.79
482.908	6295.98
483.279	6396.09
483.65	6514.73
484.021	6592.24
484.391	6698.23
484.762	6792.01
485.133	6878.79
485.503	6978.22
485.874	7128.95
486.244	7224.77
486.615	7387.02
486.985	7463.86
487.356	7610.29
487.726	7666.11
488.097	7941.81
488.467	7962.6
488.837	8156.72
489.207	8230.62
489.578	8375.7
489.948	8477.62
490.318	8611.17
490.688	8705.18
491.058	8837.15
491.428	9026.3
491.798	9107.2
492.168	9334.32
492.538	9416.12
492.908	9486.18
493.278	9638.72
493.648	9741.99
494.017	9857.24
494.387	9979.72
494.757	10152.83
495.126	10196.89
495.496	10356.44
495.866	10465.59
496.235	10562.31
496.605	10668.07
496.974	10752.13
497.344	10882.98
497.713	11070.09
498.082	11126.59
498.452	11320.93
498.821	11380.59
499.19	11469.4
499.559	11572
499.928	11790.75
500.298	11795.04
500.667	11984.19
501.036	12002.72
501.405	12147.35
501.774	12219.89
502.143	12390.28
502.512	12390.51
502.88	12622.14
503.249	12663.04
503.618	12705.08
503.987	12876.6
504.356	12946.43
504.724	13120.43
505.093	13114.78
505.462	13246.08
505.83	13281.33
506.199	13519.07
506.567	13687.42
506.936	13673.86
507.304	13953.86
507.672	13874.31
508.041	14064.59
508.409	14246.28
508.777	14360.85
509.145	14424.13
509.514	14465.93
509.882	14681.52
510.25	14729.88
510.618	14862.53
510.986	14996.31
511.354	15067.05
511.722	15288.74
512.09	15409.86
512.458	15386.36
512.826	15571.67
513.193	15516.98
513.561	15723.98
513.929	15789.06
514.297	15933.92
514.664	16088.49
515.032	16261.59
515.4	16323.29
515.767	16397.18
516.135	16503.85
516.502	16400.12
516.869	16760.11
517.237	16866.77
517.604	16871.97
517.972	17170.49
518.339	17178.63
518.706	17291.17
519.073	17427.66
519.44	17576.13
519.808	17677.83
520.175	17789.46
520.542	17963.69
520.909	18126.63
521.276	18222.9
521.643	18499.05
522.009	18464.25
522.376	18652.94
522.743	18772.26
523.11	19130.67
523.477	19228.29
523.843	19259.71
524.21	19538.12
524.577	19626.7
524.943	19783.99
525.31	19980.14
525.676	20119.8
526.043	20327.25
526.409	20409.96
526.776	20591.42
527.142	20657.18
527.508	20779.44
527.874	20911.41
528.241	21143.72
528.607	21284.28
528.973	21487.9
529.339	21469.36
529.705	21795.91
530.071	21936.7
530.437	22090.14
530.803	22274.54
531.169	22329.23
531.535	22408.1
531.901	22608.54
532.267	22522.67
532.632	22729.67
532.998	22845.15
533.364	23041.3
533.73	23082.88
534.095	23242.88
534.461	23392.93
534.826	23469.54
535.192	23604.45
535.557	23840.15
535.923	23858.91
536.288	23919.7
536.653	24066.36
537.019	24113.59
537.384	24201.27
537.749	24351.1
538.114	24490.75
538.479	24362.17
538.845	24473.58
539.21	24529.4
539.575	24621.15
539.94	24722.16
540.305	24863.17
540.67	24936.17
541.034	25057.29
541.399	25121.92
541.764	25212.77
542.129	25345.42
542.494	25349.04
542.858	25487.11
543.223	25377.96
543.587	25553.55
543.952	25643.04
544.316	25698.18
544.681	25743.83
545.045	25831.96
545.41	25943.37
545.774	26021.56
546.138	26087.77
546.503	26130.49
546.867	26228.11
547.231	26425.84
547.595	26450.93
547.959	26469.91
548.324	26596.24
548.688	26667.87
549.052	26653.64
549.416	26657.25
549.779	26732.05
550.143	26817.7
550.507	27021.99
550.871	26985.15
551.235	27060.63
551.599	27321.64
551.962	27268.53
552.326	27360.51
552.689	27437.57
553.053	27428.53
553.417	27426.04
553.78	27753.72
554.143	27892.25
554.507	27767.5
554.87	28065.35
555.234	28230.77
555.597	28080.26
555.96	28265.57
556.323	28370.88
556.686	28378.11
557.05	28591.21
557.413	28610.87
557.776	28725.67
558.139	28835.95
558.502	28928.6
558.865	28991.88
559.228	29202.27
559.59	29288.82
559.953	29399.55
560.316	29658.75
560.679	29698.98
561.041	29842.03
561.404	30105.52
561.767	30302.35
562.129	30044.51
562.492	30282.01
562.854	30431.16
563.217	30392.07
563.579	30607.2
563.941	30613.53
564.304	31010.81
564.666	31116.57
565.028	31083.35
565.39	31268.43
565.753	31570.34
566.115	31575.09
566.477	31667.51
566.839	31849.2
567.201	32199.25
567.563	32094.17
567.925	32453.48
568.287	32469.3
568.648	32635.85
569.01	32816.41
569.372	33086.01
569.734	32961.49
570.095	33375.49
570.457	33516.73
570.819	33560.8
571.18	33558.54
571.542	33782.49
571.903	34120.11
572.265	34230.61
572.626	34435.35
572.987	34504.28
573.349	34689.36
573.71	34866.07
574.071	35066.75
574.432	35265.61
574.794	35607.3
575.155	35489.79
575.516	35672.38
575.877	35844.13
576.238	36007.06
576.599	36184.23
576.96	36477.33
577.32	36426.49
577.681	36682.75
578.042	37185.11
578.403	37140.82
578.763	37200.02
579.124	37484.31
579.485	37749.16
579.845	37960.46
580.206	37926.33
580.566	38247.91
580.927	38373.33
581.287	38664.84
581.648	38578.07
582.008	39018.51
582.368	39146.64
582.728	39361.78
583.089	39603.13
583.449	39763.57
583.809	39997.69
584.169	40306.61
584.529	40299.38
584.889	40814.39
585.249	40848.29
585.609	40931.9
585.969	41436.3
586.329	41510.65
586.688	41932.78
587.048	42110.63
587.408	42309.95
587.768	42687.11
588.127	42779.09
588.487	43018.4
588.846	43608.22
589.206	43482.35
589.565	43774.99
589.925	44238.71
590.284	44398.48
590.643	44682.77
591.003	45004.34
591.362	45468.73
591.721	45563.65
592.08	45854.03
592.44	46358.43
592.799	46514.13
593.158	46698.76
593.517	46893.1
593.876	47282.47
594.235	47495.57
594.593	47719.75
594.952	48261.88
595.311	48282.9
595.67	48645.15
596.029	49060.5
596.387	49364
596.746	49609.19
597.104	49486.26
597.463	49882.63
597.822	50232.45
598.18	50209.85
598.538	50676.51
598.897	51047.34
599.255	50898.2
599.613	51540.89
599.972	51488.01
600.33	51779.75
600.688	51763.26
601.046	52080.54
601.404	52505.84
601.762	52618.38
602.12	52834.42
602.478	52917.13
602.836	53142.66
603.194	53072.6
603.552	53355.76
603.91	53474.85
604.268	53749.65
604.625	53884.78
604.983	54173.59
605.341	54159.8
605.698	54483.64
606.056	54662.62
606.413	54669.62
606.771	55027.8
607.128	55039.1
607.485	55136.5
607.843	55268.7
608.2	55576.26
608.557	55761.8
608.914	55784.85
609.272	55989.81
609.629	56140.54
609.986	56293.76
610.343	56372.85
610.7	56538.73
611.057	56624.6
611.414	56708.44
611.771	56926.51
612.127	56997.92
612.484	57049.22
612.841	57215.77
613.198	57212.83
613.554	57236.11
613.911	57520.39
614.267	57572.82
614.624	57613.5
614.98	57773.95
615.337	57992.7
615.693	57980.04
616.05	58116.76
616.406	58200.38
616.762	58244.9
617.118	58324.89
617.475	58364.21
617.831	58546.81
618.187	58581.84
618.543	58646.24
618.899	58786.35
619.255	58833.58
619.611	58855.95
619.967	59013.24
620.323	59106.34
620.678	59026.34
621.034	59038.77
621.39	59161.26
621.746	59128.04
622.101	59408.93
622.457	59222.95
622.812	59461.59
623.168	59444.41
623.523	59499.1
623.879	59559.89
624.234	59473.56
624.589	59548.82
624.945	59653.45
625.3	59700
625.655	59687.12
626.01	59725.76
626.365	59761.69
626.72	59711.07
627.075	59756.27
627.43	59781.13
627.785	59842.59
628.14	59872.65
628.495	59911.74
628.85	59922.82
629.205	59850.5
629.559	59939.31
629.914	59885.53
630.269	59878.07
630.623	59833.1
630.978	59760.56
631.332	59911.29
631.687	59934.12
632.041	59880.78
632.396	59890.05
632.75	59875.59
633.104	59913.55
633.459	59825.87
633.813	59851.18
634.167	59841.01
634.521	59871.52
634.875	59937.28
635.229	59793.78
635.583	59721.01
635.937	59737.51
636.291	59697.06
636.645	59738.42
636.999	59644.63
637.352	59763.5
637.706	59582.49
638.06	59712.43
638.413	59573.67
638.767	59530.96
639.121	59646.21
639.474	59475.37
639.828	59455.71
640.181	59503.17
640.534	59491.19
640.888	59358.76
641.241	59337.75
641.594	59364.87
641.947	59505.2
642.301	59392.89
642.654	59438.31
643.007	59251.2
643.36	59350.85
643.713	59311.53
644.066	59425.43
644.419	59262.5
644.771	58976.4
645.124	58746.58
645.477	58736.63
645.83	58617.77
646.182	58587.48
646.535	58557.66
646.888	58576.41
647.24	58495.06
647.593	58607.15
647.945	58505.91
648.298	58401.28
648.65	58320.6
649.002	58256.19
649.355	58287.15
649.707	58206.48
650.059	58240.38
650.411	58602.17
650.763	58588.39
651.115	58977.08
651.467	58840.36
651.819	58868.38
652.171	58770.76
652.523	58675.84
652.875	58763.75
653.227	58573.25
653.578	58759.01
653.93	58653.02
654.282	58634.04
654.633	58574.15
654.985	58559.24
655.337	58554.27
655.688	58559.01
656.039	58649.63
656.391	58416.19
656.742	58433.14
657.094	58460.26
657.445	58428.62
657.796	58473.14
658.147	58375.51
658.498	58404.89
658.849	58482.18
659.2	58320.37
659.551	58291.22
659.902	58426.81
660.253	58300.03
660.604	58351.78
660.955	58242.64
661.306	58345.23
661.656	58214.16
662.007	58289.87
662.358	58280.6
662.708	58253.26
663.059	58239.7
663.409	58052.13
663.76	58286.93
664.11	58236.53
664.461	58270.43
664.811	58273.37
665.161	58173.71
665.511	58176.42
665.862	58212.13
666.212	58203.54
666.562	58256.65
666.912	58132.81
667.262	58109.08
667.612	58102.3
667.962	58124.22
668.312	58057.33
668.662	58266.82
669.011	58145.91
669.361	58102.75
669.711	58108.18
670.06	58059.59
670.41	58021.4
670.76	57924
671.109	58060.72
671.459	58019.59
671.808	57929.42
672.157	58070.44
672.507	57915.86
672.856	57914.96
673.205	57949.31
673.554	58039.93
673.904	57917.67
674.253	58211.22
674.602	57979.82
674.951	57632.93
675.3	57498.47
675.649	57967.39
675.998	57893.04
676.346	57857.11
676.695	57939.82
677.044	57745.7
677.393	57867.05
677.741	57890.1
678.09	57875.64
678.438	57825.7
678.787	57861.4
679.135	57797.9
679.484	57668.64
679.832	57873.61
680.181	57739.82
680.529	57763.1
680.877	57615.31
681.225	57617.79
681.573	57841.74
681.922	57680.62
682.27	57632.03
682.618	57619.37
682.966	57532.15
683.314	57606.95
683.661	57549.55
684.009	57494.41
684.357	57391.58
684.705	57431.36
685.053	57451.24
685.4	57285.37
685.748	57252.6
686.095	57282.89
686.443	57131.48
686.79	57151.59
687.138	57209.67
687.485	57180.06
687.832	57060.52
688.18	57065.72
688.527	57088.54
688.874	56967.19
689.221	56958.6
689.568	56867.08
689.915	56805.61
690.262	56849.23
690.609	56789.34
690.956	56715.22
691.303	56689.46
691.65	56656.46
691.997	56561.1
692.344	56483.36
692.69	56414.21
693.037	56446.07
693.383	56257.83
693.73	56288.11
694.077	56208.56
694.423	56237.94
694.769	56161.33
695.116	56130.83
695.462	56011.96
695.808	55863.26
696.155	55970.38
696.501	55704.62
696.847	55796.6
697.193	55581.01
697.539	55735.81
697.885	55442.26
698.231	55482.03
698.577	55390.28
698.923	55412.65
699.269	55244.75
699.614	55136.28
699.96	55101.47
700.306	55181.47
700.651	55020.8
700.997	54901.71
701.342	54860.13
701.688	54839.11
702.033	54784.65
702.379	54713.01
702.724	54592.56
703.069	54647.25
703.415	54285.9
703.76	54347.14
704.105	54301.5
704.45	54264.66
704.795	54093.82
705.14	54019.02
705.485	54064.21
705.83	53883.43
706.175	53999.36
706.52	53816.76
706.865	53714.84
707.209	53594.17
707.554	53596.2
707.899	53597.33
708.243	53482.31
708.588	53369.09
708.932	53218.13
709.277	53274.18
709.621	53158.93
709.966	53016.78
710.31	53064.24
710.654	52880.06
710.998	52916.67
711.342	52875.09
711.687	52769.33
712.031	52734.98
712.375	52600.07
712.719	52508.55
713.063	52497.48
713.407	52699.05
713.75	52330.25
714.094	52359.17
714.438	52153.76
714.782	52266.52
715.125	52115.79
715.469	52231.04
715.812	51971.84
716.156	51938.85
716.499	51845.97
716.843	52041.44
717.186	51728.46
717.53	51981.78
717.873	51886.42
718.216	51690.49
718.559	51616.59
718.902	51347.22
719.246	51461.8
719.589	51346.09
719.932	51229.26
720.275	51257.06
720.617	51315.59
720.96	51104.29
721.303	51197.17
721.646	51178.41
721.989	50896.61
722.331	51062.26
722.674	50950.4
723.016	50822.27
723.359	50816.39
723.701	50881.25
724.044	50705.66
724.386	50569.16
724.729	50737.97
725.071	50682.38
725.413	50570.07
725.755	50474.25
726.097	50332.79
726.439	50164.66
726.782	50220.7
727.124	50409.39
727.465	50213.47
727.807	50180.47
728.149	50054.15
728.491	49987.71
728.833	50030.2
729.175	49820.03
729.516	49903.65
729.858	49945.68
730.199	49954.27
730.541	49781.61
730.882	49667.95
731.224	49692.35
731.565	49570.77
731.906	49627.72
732.248	49613.26
732.589	49373.49
732.93	49239.48
733.271	49354.51
733.612	49361.74
733.953	49464.11
734.294	49149.99
734.635	49091.46
734.976	49324.9
735.317	49145.93
735.658	49089.43
735.999	48990.68
736.339	49046.72
736.68	48995.42
737.021	48874.75
737.361	48807.4
737.702	49050.11
738.042	48814.18
738.383	48710.46
738.723	48842.43
739.063	48658.03
739.404	48836.33
739.744	48604.02
740.084	48540.97
740.424	48570.57
740.764	48511.14
741.104	48557.92
741.444	48369.45
741.784	48230.02
742.124	48345.04
742.464	48299.85
742.804	48132.62
743.143	48142.34
743.483	48139.62
743.823	47967.43
744.162	47957.71
744.502	47999.97
744.841	47860.31
745.181	47894.88
745.52	47817.15
745.86	47913.19
746.199	47665.06
746.538	47632.52
746.877	47808.33
747.216	47683.14
747.556	47574.89
747.895	47571.73
748.234	47491.96
748.573	47311.62
748.911	47255.35
749.25	47330.83
749.589	47135.58
749.928	47147.33
750.267	47128.13
750.605	46992.54
750.944	46981.24
751.283	46832.99
751.621	46982.14
751.96	46751.86
752.298	46794.35
752.636	46783.5
752.975	46620.12
753.313	46339.67
753.651	46636.84
753.989	46308.26
754.327	46456.28
754.666	46009.28
755.004	46178.55
755.342	46200.24
755.679	46200.92
756.017	45906.91
756.355	45913.92
756.693	45771.78
757.031	45967.03
757.368	45538.79
757.706	45578.79
758.044	45447.27
758.381	45407.04
758.719	45225.12
759.056	45434.84
759.394	45101.51
759.731	44852.93
760.068	44844.8
760.405	44842.54
760.743	44678.25
761.08	44593.05
761.417	44417.01
761.754	44372.72
762.091	44358.48
762.428	44109.22
762.765	43872.17
763.102	43971.82
763.438	43793.75
763.775	43572.96
764.112	43540.42
764.449	43537.03
764.785	43365.29
765.122	43150.6
765.458	42933.66
765.795	42976.82
766.131	42917.61
766.467	42814.11
766.804	42432.88
767.14	42306.11
767.476	42245.99
767.812	42216.39
768.148	42198.09
768.485	42002.16
768.821	41662.51
769.157	41552.45
769.492	41464.77
769.828	41412.34
770.164	41139.58
770.5	40971.9
770.836	41091.45
771.171	40864.11
771.507	40636.09
771.842	40470.45
772.178	40454.85
772.513	40378.92
772.849	40125.15
773.184	40221.64
773.519	39895.32
773.855	39695.55
774.19	39606.52
774.525	39536.69
774.86	39449.91
775.195	39267.31
775.53	39151.16
775.865	38977.38
776.2	38689.48
776.535	38448.13
776.87	38467.79
777.205	38207.23
777.539	38121.81
777.874	38223.05
778.209	37829.16
778.543	37843.4
778.878	37583.74
779.212	37545.78
779.547	37283.86
779.881	37346.01
780.215	36995.28
780.55	37093.36
780.884	36694.73
781.218	36704.44
781.552	36759.81
781.886	36501.06
782.22	36372.25
782.554	36223.55
782.888	35873.96
783.222	35954.63
783.556	35497.7
783.889	35563.23
784.223	35304.26
784.557	35356.46
784.89	35394.87
785.224	35031.27
785.557	34855.45
785.891	34867.88
786.224	34831.95
786.558	34721.9
786.891	34514.45
787.224	34276.26
787.557	34080.11
787.891	33999.43
788.224	33956.72
788.557	33888.7
788.89	33717.63
789.223	33618.88
789.556	33586.56
789.888	33446.23
790.221	33156.97
790.554	33134.59
790.887	33037.42
791.219	32974.37
791.552	32820.93
791.884	32638.56
792.217	32690.99
792.549	32575.06
792.882	32257.1
793.214	32187.28
793.546	32166.03
793.879	31927.17
794.211	31783.67
794.543	31953.38
794.875	31780.51
795.207	31629.78
795.539	31542.32
795.871	31590.45
796.203	31343.68
796.535	31184.59
796.867	31218.49
797.198	30898.95
797.53	30872.96
797.862	30650.14
798.193	30754.77
798.525	30528.56
798.856	30701.66
799.188	30194.79
799.519	30166.54
799.85	30015.13
800.182	30030.04
800.513	30199.76
800.844	29642.71
801.175	29852.42
801.506	29838.41
801.837	29631.64
802.168	29711.18
802.499	29635.25
802.83	29341.02
803.161	29389.83
803.491	29264.41
803.822	29214.47
804.153	28968.83
804.483	28848.15
804.814	28775.61
805.145	28859.68
805.475	28717.99
805.805	28697.65
806.136	28727.93
806.466	28474.38
806.796	28514.15
807.126	28286.81
807.457	28208.85
807.787	28324.1
808.117	28111
808.447	28040.49
808.777	28224.67
809.107	27876.65
809.436	27704
809.766	27750.56
810.096	27640.05
810.426	27522.54
810.755	27540.39
811.085	27495.87
811.414	27426.95
811.744	27278.48
812.073	27278.93
812.403	27182.89
812.732	27090.01
813.061	27267.4
813.39	26907.19
813.719	26834.2
814.049	26937.7
814.378	26748.77
814.707	26646.4
815.036	26735.89
815.365	26536.8
815.693	26446.18
816.022	26423.81
816.351	26353.53
816.68	26279.86
817.008	26288.22
817.337	26053.43
817.665	26055.23
817.994	26097.94
818.322	26056.81
818.651	25995.12
818.979	25862.24
819.307	25828.12
819.636	25870.15
819.964	25743.6
820.292	25740.21
820.62	25627.9
820.948	25761.23
821.276	25774.56
821.604	25672.42
821.932	25811.62
822.259	25584.28
822.587	25594
822.915	25498.64
823.243	25635.36
823.57	25595.13
823.898	25646.43
824.225	25493.21
824.553	25484.17
824.88	25598.07
825.207	25682.59
825.535	25492.54
825.862	25758.52
826.189	25612.31
826.516	25739.08
826.843	25773.21
827.17	25803.04
827.497	25726.65
827.824	25758.07
828.151	25764.85
828.478	25497.73
828.805	25802.58
829.131	25605.08
829.458	25607.11
829.785	25590.16
830.111	25570.73
830.438	25691.63
830.764	25633.1
831.09	25636.03
831.417	25445.08
831.743	25697.28
832.069	25656.37
832.395	25556.94
832.722	25613.21
833.048	25553.33
833.374	25507.45
833.7	25501.58
834.026	25487.56
834.351	25414.57
834.677	25483.04
835.003	25361.47
835.329	25362.82
835.654	25362.82
835.98	25168.02
836.306	25357.85
836.631	25231.53
836.956	25345.42
837.282	25274.01
837.607	25299.77
837.932	25051.19
838.258	25080.8
838.583	25188.82
838.908	25007.35
839.233	24994.7
839.558	24969.61
839.883	24919.67
840.208	24731.2
840.533	24822.72
840.858	24776.4
841.182	24859.78
841.507	24821.82
841.832	24599.68
842.156	24663.86
842.481	24638.77
842.805	24443.75
843.13	24462.73
843.454	24422.51
843.778	24446.24
844.103	24311.55
844.427	24302.51
844.751	24320.82
845.075	24210.54
845.399	24133.93
845.723	24047.15
846.047	24046.92
846.371	23836.53
846.695	23737.78
847.019	23728.29
847.343	23603.09
847.666	23524
847.99	23402.42
848.313	23347.51
848.637	23212.14
848.96	23213.5
849.284	23226.83
849.607	22989.78
849.931	22879.95
850.254	22758.37
850.577	22595.89
850.9	22499.17
851.223	22557.02
851.546	22369.45
851.869	22337.82
852.192	22416.01
852.515	22232.73
852.838	22124.49
853.161	22049.24
853.483	21952.97
853.806	21881.78
854.129	21830.49
854.451	21776.48
854.774	21640.66
855.096	21651.06
855.419	21409.48
855.741	21416.03
856.063	21350.5
856.385	21223.04
856.708	21288.13
857.03	21270.95
857.352	21124.29
857.674	21152.31
857.996	20982.82
858.318	20835.48
858.64	20882.71
858.961	20785.99
859.283	20617.86
859.605	20599.11
859.926	20498.09
860.248	20600.46
860.57	20458.32
860.891	20523.85
861.212	20372.9
861.534	20314.82
861.855	20267.36
862.176	20261.26
862.498	20282.96
862.819	20234.6
863.14	20180.36
863.461	20078.89
863.782	20021.27
864.103	20105.78
864.424	20055.39
864.745	20088.84
865.065	19843.42
865.386	19810.65
865.707	19846.13
866.027	19894.49
866.348	19833.48
866.668	19732.69
866.989	19662.41
867.309	19595.29
867.63	19583.09
867.95	19540.83
868.27	19514.39
868.59	19596.65
868.91	19323.66
869.23	19478.46
869.55	19413.15
869.87	19491.79
870.19	19252.93
870.51	19306.03
870.83	19245.69
871.15	19250.67
871.469	19311.23
871.789	19232.81
872.109	19112.59
872.428	19151.46
872.748	19253.38
873.067	19061.29
873.386	19038.47
873.706	18998.47
874.025	18920.05
874.344	18887.74
874.663	18981.75
874.982	18980.39
875.301	18893.16
875.62	18821.3
875.939	18697.69
876.258	18836.44
876.577	18589.89
876.896	18665.82
877.214	18706.05
877.533	18805.03
877.852	18651.59
878.17	18633.73
878.489	18622.66
878.807	18496.56
879.125	18509.67
879.444	18525.49
879.762	18440.52
880.08	18553.06
880.398	18355.32
880.716	18349.45
881.034	18355.1
881.352	18293.63
881.67	18267.19
881.988	18198.72
882.306	18118.49
882.624	18143.35
882.941	18037.36
883.259	18017.93
883.577	18029.46
883.894	17992.62
884.212	17870.59
884.529	17796.24
884.846	17845.73
885.164	17708.56
885.481	17698.39
885.798	17734.32
886.115	17678.05
886.432	17690.48
886.75	17571.61
887.067	17623.14
887.383	17437.61
887.7	17536.59
888.017	17394.9
888.334	17337.27
888.651	17337.5
888.967	17335.24
889.284	17197.16
889.6	17180.21
889.917	17135.92
890.233	17069.25
890.55	16975.02
890.866	16965.08
891.182	16909.48
891.498	16980.9
891.815	16830.84
892.131	16716.27
892.447	16839.66
892.763	16727.12
893.079	16750.17
893.395	16655.25
893.71	16664.07
894.026	16479.89
894.342	16516.5
894.657	16397.18
894.973	16288.94
895.289	16271.76
895.604	16256.62
895.92	16189.96
896.235	16197.19
896.55	16129.84
896.865	16086.46
897.181	16006.91
897.496	15904.77
897.811	15797.2
898.126	15792.45
898.441	15797.2
898.756	15738.44
899.071	15594.94
899.386	15707.93
899.7	15574.6
900.015	15377.32
900.33	15230.88
900.644	15393.37
900.959	15355.63
901.273	15280.6
901.588	15216.2
901.902	15114.05
902.216	15095.52
902.531	15010.33
902.845	14960.16
903.159	14825.47
903.473	14931.01
903.787	14749.99
904.101	14698.47
904.415	14723.78
904.729	14748.19
905.042	14604.23
905.356	14538.02
905.67	14581.86
905.984	14423.22
906.297	14378.25
906.611	14329.89
906.924	14273.85
907.237	14273.4
907.551	14242.44
907.864	14083.34
908.177	14155.21
908.491	14118.15
908.804	13983.69
909.117	13834.54
909.43	13797.93
909.743	13805.16
910.056	13724.26
910.368	13679.97
910.681	13623.24
910.994	13543.25
911.307	13462.57
911.619	13369.24
911.932	13451.72
912.244	13375.57
912.557	13268.9
912.869	13189.58
913.181	13232.52
913.494	13209.47
913.806	13087.44
914.118	12938.06
914.43	13006.99
914.742	12911.62
915.054	12796.82
915.366	12736.04
915.678	12777.39
915.99	12701.01
916.302	12697.39
916.613	12579.66
916.925	12547.11
917.236	12542.59
917.548	12410.85
917.859	12408.13
918.171	12290.85
918.482	12332.43
918.794	12213.34
919.105	12189.38
919.416	12094.7
919.727	12079.33
920.038	11998.65
920.349	11911.88
920.66	11851.99
920.971	11915.94
921.282	11862.39
921.593	11727.7
921.903	11661.04
922.214	11548.95
922.525	11599.34
922.835	11535.61
923.146	11494.71
923.456	11351.44
923.767	11361.83
924.077	11361.83
924.387	11280.03
924.697	11250.2
925.008	11198
925.318	11174.72
925.628	11106.7
925.938	11099.24
926.248	10973.37
926.558	10987.15
926.867	10892.92
927.177	10804.56
927.487	10875.75
927.796	10734.73
928.106	10739.03
928.416	10663.77
928.725	10638.92
929.034	10579.93
929.344	10666.03
929.653	10585.81
929.962	10412.03
930.271	10430.79
930.581	10354.85
930.89	10388.53
931.199	10283.22
931.508	10254.29
931.817	10256.78
932.125	10207.29
932.434	10132.49
932.743	10006.39
933.051	10005.03
933.36	10000.06
933.669	9953.06
933.977	9906.05
934.286	9892.04
934.594	9845.72
934.902	9705.61
935.21	9693.86
935.519	9618.83
935.827	9569.11
936.135	9629.68
936.443	9508.78
936.751	9489.79
937.059	9393.07
937.367	9353.98
937.674	9457.93
937.982	9264.71
938.29	9310.81
938.597	9269.23
938.905	9171.84
939.213	9160.31
939.52	9141.55
939.827	9157.15
940.135	9099.07
940.442	9080.54
940.749	8951.28
941.056	8995.12
941.363	8899.98
941.67	8910.37
941.977	8835.35
942.284	8743.37
942.591	8750.6
942.898	8704.5
943.205	8662.24
943.511	8597.61
943.818	8534.34
944.125	8551.96
944.431	8567.33
944.738	8463.61
945.044	8546.54
945.35	8448.01
945.657	8373.89
945.963	8347.9
946.269	8315.13
946.575	8268.13
946.881	8240.11
947.187	8238.53
947.493	8135.7
947.799	8151.3
948.105	8050.28
948.41	7994.69
948.716	7982.49
949.022	7861.81
949.327	7914.24
949.633	7836.95
949.938	7840.57
950.244	7790.4
950.549	7761.93
950.854	7693.91
951.16	7688.03
951.465	7633.57
951.77	7589.5
952.075	7592.22
952.38	7524.19
952.685	7534.59
952.99	7486.91
953.294	7469.28
953.599	7371.43
953.904	7323.97
954.209	7307.48
954.513	7385.44
954.818	7286.46
955.122	7273.13
955.426	7312.22
955.731	7219.34
956.035	7138.44
956.339	7095.96
956.643	7143.87
956.948	7085.11
957.252	7055.73
957.556	7024.32
957.86	6985.9
958.163	6977.99
958.467	6900.71
958.771	6882.18
959.075	6874.95
959.378	6833.14
959.682	6810.77
959.985	6753.14
960.289	6723.99
960.592	6678.12
960.896	6709.53
961.199	6687.83
961.502	6571.68
961.805	6565.8
962.108	6571.68
962.411	6467.5
962.714	6482.19
963.017	6456.2
963.32	6445.13
963.623	6417.56
963.926	6377.78
964.228	6340.5
964.531	6352.7
964.833	6333.49
965.136	6279.93
965.438	6238.8
965.741	6185.7
966.043	6190.44
966.345	6180.73
966.648	6111.8
966.95	6067.51
967.252	6017.79
967.554	6090.56
967.856	6044.23
968.158	5995.65
968.46	5964.24
968.761	5920.4
969.063	5837.91
969.365	5852.6
969.666	5840.62
969.968	5771.92
970.269	5752.26
970.571	5786.39
970.872	5820.28
971.174	5712.72
971.475	5679.05
971.776	5690.8
972.077	5665.03
972.378	5593.62
972.679	5575.09
972.98	5574.42
973.281	5578.03
973.582	5547.52
973.883	5456
974.183	5510.91
974.484	5429.33
974.785	5394.76
975.085	5380.07
975.386	5397.47
975.686	5351.82
975.986	5321.09
976.287	5312.73
976.587	5239.74
976.887	5264.14
977.187	5258.72
977.487	5204.48
977.787	5231.83
978.087	5127.42
978.387	5140.53
978.687	5083.58
978.987	5101.89
979.286	5114.99
979.586	5082.23
979.885	4950.7
980.185	5023.24
980.484	4950.93
980.784	4927.2
981.083	4925.39
981.382	4943.02
981.682	4906.41
981.981	4898.28
982.28	4885.85
982.579	4790.71
982.878	4805.17
983.177	4740.77
983.475	4772.85
983.774	4738.28
984.073	4689.24
984.372	4650.6
984.67	4679.52
984.969	4613.54
985.267	4600.66
985.566	4552.07
985.864	4543.03
986.162	4572.18
986.461	4555.23
986.759	4486.76
987.057	4454.45
987.355	4446.08
987.653	4463.94
987.951	4434.11
988.249	4359.76
988.547	4348.46
988.844	4374.45
989.142	4343.49
989.44	4285.18
989.737	4310.04
990.035	4270.95
990.332	4284.28
990.63	4256.26
990.927	4220.78
991.224	4204.28
991.521	4156.6
991.819	4161.12
992.116	4128.8
992.413	4116.6
992.71	4114.79
993.006	4060.11
993.303	4012.42
993.6	4010.61
993.897	4055.36
994.193	3986.21
994.49	4003.16
994.787	3941.69
995.083	3927.91
995.379	3911.86
995.676	3899.21
995.972	3919.54
996.268	3871.41
996.565	3784.63
996.861	3799.32
997.157	3752.77
997.453	3725.2
997.749	3725.2
998.044	3691.53
998.34	3689.04
998.636	3664.64
998.932	3635.48
999.227	3675.26
999.523	3650.62
999.818	3640.91
1000.114	3606.56
1000.409	3599.78
1000.704	3558.42
1001	3524.3
1001.295	3518.42
1001.59	3507.8
1001.885	3455.38
1002.18	3483.85
1002.475	3445.21
1002.77	3379.22
1003.065	3398.2
1003.359	3372.67
1003.654	3336.73
1003.949	3339.45
1004.243	3305.77
1004.538	3308.71
1004.832	3355.94
1005.127	3276.4
1005.421	3225.78
1005.715	3230.07
1006.009	3211.77
1006.304	3205.89
1006.598	3161.6
1006.892	3132.9
1007.186	3081.83
1007.48	3041.83
1007.773	3085.22
1008.067	3075.27
1008.361	3061.94
1008.655	3014.03
1008.948	2995.5
1009.242	3015.84
1009.535	2982.85
1009.829	2968.83
1010.122	2938.78
1010.415	2922.96
1010.708	2908.05
1011.001	2878.22
1011.295	2847.71
1011.588	2858.33
1011.881	2796.64
1012.173	2788.05
1012.466	2794.15
1012.759	2772.46
1013.052	2778.1
1013.344	2769.52
1013.637	2755.51
1013.93	2718.22
1014.222	2694.04
1014.514	2672.8
1014.807	2662.4
1015.099	2650.65
1015.391	2651.1
1015.683	2648.16
1015.976	2587.15
1016.268	2552.35
1016.56	2572.46
1016.851	2528.17
1017.143	2540.37
1017.435	2517.09
1017.727	2445.46
1018.018	2490.88
1018.31	2449.07
1018.602	2456.53
1018.893	2384.67
1019.185	2410.2
1019.476	2396.87
1019.767	2358.68
1020.058	2328.4
1020.35	2318
1020.641	2318.23
1020.932	2282.52
1021.223	2262.86
1021.514	2271.68
1021.804	2243.2
1022.095	2250.21
1022.386	2258.8
1022.677	2224.45
1022.967	2220.38
1023.258	2166.6
1023.548	2150.32
1023.839	2152.58
1024.129	2103.09
1024.419	2118.24
1024.709	2118.24
1025	2109.2
1025.29	2071.91
1025.58	2071.46
1025.87	2058.35
1026.16	2007.96
1026.449	2005.92
1026.739	1999.82
1027.029	2026.49
1027.319	1984
1027.608	1964.79
1027.898	1939.93
1028.187	1948.97
1028.477	1924.12
1028.766	1908.98
1029.055	1887.28
1029.344	1878.47
1029.634	1844.57
1029.923	1854.97
1030.212	1848.64
1030.501	1834.85
1030.79	1804.8
1031.078	1795.76
1031.367	1768.41
1031.656	1770.67
1031.945	1764.8
1032.233	1698.36
1032.522	1735.42
1032.81	1708.08
1033.099	1690.68
1033.387	1705.82
1033.675	1672.6
1033.963	1684.35
1034.251	1654.07
1034.54	1652.71
1034.828	1602.32
1035.116	1588.98
1035.403	1600.28
1035.691	1583.33
1035.979	1575.42
1036.267	1595.31
1036.554	1566.61
1036.842	1547.85
1037.129	1538.14
1037.417	1524.13
1037.704	1516.9
1037.992	1522.09
1038.279	1485.48
1038.566	1479.83
1038.853	1479.83
1039.14	1479.83
