Data from 7548_FLMS001491_006.txt Node
Date: Thu Apr 12 17:06:29 BST 2018
User: hsy
Spectrometer: FLMS00149
Trigger mode: 0
Integration Time (sec): 1.000000E-2
Scans to average: 10
Electric dark correction enabled: true
Nonlinearity correction enabled: false
Boxcar width: 0
XAxis mode: Wavelengths
Number of Pixels in Spectrum: 2048
>>>>>Begin Spectral Data<<<<<
341.393	-3.28
341.776	-3.28
342.16	-3.28
342.543	-52.54
342.927	-70.85
343.31	-71.07
343.693	-60.22
344.077	-43.05
344.46	-70.62
344.843	-41.24
345.226	-38.08
345.61	-26.1
345.993	-23.16
346.376	-17.29
346.759	9.38
347.142	33.33
347.525	23.16
347.908	43.5
348.291	82.37
348.674	90.73
349.057	108.36
349.44	125.53
349.823	147.23
350.206	181.13
350.588	248.69
350.971	271.74
351.354	253.21
351.737	275.81
352.119	291.18
352.502	318.52
352.884	320.1
353.267	330.05
353.65	334.12
354.032	337.05
354.414	340.89
354.797	353.1
355.179	372.31
355.562	406.43
355.944	369.14
356.326	363.72
356.709	379.99
357.091	388.13
357.473	383.15
357.855	405.3
358.238	367.56
358.62	398.75
359.002	367.79
359.384	406.2
359.766	381.8
360.148	376.15
360.53	398.29
360.912	397.16
361.294	402.36
361.676	401.46
362.057	391.74
362.439	395.81
362.821	363.95
363.203	388.8
363.584	369.37
363.966	395.58
364.348	410.72
364.729	359.43
365.111	369.59
365.493	388.35
365.874	374.79
366.256	387
366.637	376.83
367.019	374.57
367.4	369.82
367.781	392.65
368.163	373.66
368.544	388.58
368.925	370.95
369.306	384.74
369.688	371.18
370.069	363.49
370.45	374.34
370.831	390.39
371.212	405.53
371.593	376.37
371.974	401.68
372.355	360.78
372.736	391.29
373.117	388.35
373.498	377.28
373.879	408.01
374.26	363.95
374.641	384.06
375.021	400.33
375.402	387.22
375.783	405.98
376.163	414.57
376.544	407.79
376.925	394.45
377.305	405.07
377.686	407.11
378.066	431.06
378.447	405.3
378.827	420.44
379.208	407.11
379.588	387.9
379.968	423.38
380.349	430.84
380.729	420.89
381.109	444.4
381.489	422.02
381.87	419.76
382.25	437.62
382.63	432.64
383.01	423.6
383.39	457.05
383.77	455.47
384.15	447.78
384.53	425.64
384.91	453.21
385.29	446.88
385.67	459.76
386.049	448.24
386.429	462.93
386.809	464.96
387.189	458.18
387.568	448.91
387.948	463.15
388.328	480.33
388.707	464.96
389.087	487.78
389.466	481.68
389.846	488.46
390.225	499.76
390.605	478.74
390.984	478.52
391.363	487.11
391.743	485.98
392.122	505.18
392.501	500.21
392.881	526.88
393.26	523.94
393.639	503.6
394.018	517.39
394.397	530.27
394.776	529.14
395.155	530.04
395.534	515.81
395.913	527.56
396.292	535.69
396.671	552.41
397.05	529.59
397.429	574.79
397.808	546.99
398.186	541.12
398.565	528.23
398.944	544.96
399.323	532.98
399.701	539.76
400.08	558.29
400.458	571.4
400.837	575.92
401.215	558.97
401.594	582.02
401.972	576.14
402.351	563.26
402.729	570.95
403.107	616.37
403.486	602.13
403.864	582.7
404.242	607.33
404.62	624.05
404.999	592.19
405.377	623.6
405.755	612.3
406.133	639.64
406.511	648.46
406.889	628.8
407.267	641.23
407.645	633.32
408.023	645.75
408.401	652.98
408.779	659.98
409.156	641.45
409.534	676.93
409.912	681.9
410.29	707.67
410.667	680.55
411.045	674.22
411.422	695.24
411.8	725.52
412.178	712.41
412.555	713.31
412.933	738.4
413.31	743.14
413.687	733.65
414.065	755.8
414.442	733.2
414.819	765.74
415.197	778.17
415.574	786.31
415.951	794.89
416.328	791.28
416.705	791.5
417.082	801.9
417.46	831.96
417.837	801.9
418.214	835.57
418.591	817.49
418.967	852.07
419.344	815.01
419.721	831.96
420.098	829.24
420.475	838.28
420.852	832.18
421.228	860.43
421.605	862.46
421.982	875.12
422.358	869.92
422.735	884.16
423.111	884.16
423.488	925.06
423.864	925.51
424.241	897.94
424.617	918.51
424.994	933.2
425.37	950.37
425.746	929.81
426.123	925.29
426.499	945.4
426.875	962.35
427.251	985.4
427.627	997.83
428.003	993.53
428.379	991.95
428.756	994.21
429.132	1027.66
429.507	1048.67
429.883	1020.88
430.259	1075.79
430.635	1074.89
431.011	1064.04
431.387	1083.47
431.763	1120.99
432.138	1099.97
432.514	1148.33
432.89	1112.17
433.265	1147.65
433.641	1147.2
434.016	1153.98
434.392	1198.05
434.767	1199.63
435.143	1182.45
435.518	1187.88
435.894	1225.84
436.269	1229.46
436.644	1238.72
437.02	1262
437.395	1278.95
437.77	1269.46
438.145	1289.57
438.52	1301.55
438.895	1286.41
439.271	1298.84
439.646	1299.97
440.021	1339.29
440.395	1337.25
440.77	1306.52
441.145	1309.68
441.52	1377.93
441.895	1372.96
442.27	1364.37
442.645	1380.64
443.019	1397.59
443.394	1387.65
443.769	1386.52
444.143	1405.73
444.518	1411.15
444.892	1420.87
445.267	1425.61
445.641	1462
446.016	1454.99
446.39	1459.06
446.764	1421.09
447.139	1459.74
447.513	1493.18
447.887	1495.44
448.262	1497.93
448.636	1510.13
449.01	1481.43
449.384	1522.11
449.758	1567.53
450.132	1565.72
450.506	1566.17
450.88	1599.17
451.254	1578.15
451.628	1590.35
452.002	1581.54
452.376	1619.51
452.75	1649.79
453.123	1673.29
453.497	1642.56
453.871	1700.63
454.244	1751.25
454.618	1728.88
454.992	1761.2
455.365	1799.16
455.739	1792.83
456.112	1826.73
456.486	1838.93
456.859	1876
457.232	1902.89
457.606	1904.02
457.979	1925.03
458.352	1956.45
458.725	1990.34
459.099	2021.75
459.472	2024.69
459.845	2013.85
460.218	2067.86
460.591	2062.21
460.964	2071.24
461.337	2127.97
461.71	2187.17
462.083	2172.03
462.456	2191.02
462.829	2196.67
463.201	2312.37
463.574	2304.23
463.947	2314.4
464.32	2329.54
464.692	2354.4
465.065	2386.49
465.438	2400.73
465.81	2415.87
466.183	2403.44
466.555	2513.27
466.928	2521.18
467.3	2501.29
467.672	2556.88
468.045	2574.96
468.417	2594.4
468.789	2627.39
469.161	2642.3
469.534	2705.13
469.906	2751.45
470.278	2749.87
470.65	2819.7
471.022	2849.76
471.394	2896.53
471.766	2906.48
472.138	2950.32
472.51	2977.66
472.882	3017.89
473.253	3090.88
473.625	3067.83
473.997	3211.33
474.369	3215.62
474.74	3219.01
475.112	3301.27
475.484	3357.99
475.855	3433.02
476.227	3455.84
476.598	3530.87
476.97	3571.54
477.341	3684.08
477.713	3699
478.084	3759.79
478.455	3868.03
478.827	3898.99
479.198	3968.14
479.569	4051.31
479.94	4117.97
480.311	4198.19
480.682	4256.05
481.053	4386.66
481.424	4458.75
481.795	4494.23
482.166	4617.84
482.537	4663.49
482.908	4763.15
483.279	4870.95
483.65	4976.71
484.021	5043.37
484.391	5191.39
484.762	5220.09
485.133	5302.8
485.503	5410.14
485.874	5532.17
486.244	5610.13
486.615	5740.98
486.985	5761.09
487.356	5969.22
487.726	6060.29
488.097	6279.5
488.467	6323.56
488.837	6439.72
489.207	6552.48
489.578	6723.33
489.948	6816.66
490.318	7027.95
490.688	7084.22
491.058	7263.65
491.428	7420.93
491.798	7591.78
492.168	7769.4
492.538	7895.95
492.908	8052.1
493.278	8267.92
493.648	8390.85
494.017	8571.87
494.387	8684.63
494.757	8840.11
495.126	9030.61
495.496	9153.09
495.866	9362.8
496.235	9507.21
496.605	9735
496.974	9901.1
497.344	10130.92
497.713	10289.79
498.082	10434.19
498.452	10597.35
498.821	10858.36
499.19	11025.81
499.559	11253.83
499.928	11407.72
500.298	11639.13
500.667	11881.83
501.036	11967.03
501.405	12261.49
501.774	12371.31
502.143	12728.82
502.512	12849.49
502.88	13089.49
503.249	13294.68
503.618	13503.26
503.987	13738.73
504.356	14034.77
504.724	14224.6
505.093	14349.11
505.462	14633.4
505.83	14823.9
506.199	15156.1
506.567	15317.68
506.936	15626.37
507.304	15928.28
507.672	16031.56
508.041	16207.82
508.409	16500.92
508.777	16853.23
509.145	17102.26
509.514	17177.51
509.882	17479.43
510.25	17637.84
510.618	17888
510.986	18130.71
511.354	18454.32
511.722	18605.05
512.09	18967.52
512.458	18950.8
512.826	19315.31
513.193	19481.41
513.561	19649.54
513.929	19939.02
514.297	20158.45
514.664	20499.01
515.032	20564.32
515.4	20878.89
515.767	21130.18
516.135	21299.21
516.502	21164.3
516.869	21730.16
517.237	21961.12
517.604	21900.55
517.972	22322.01
518.339	22491.72
518.706	22621.89
519.073	22842
519.44	23051.48
519.808	23395.43
520.175	23535.99
520.542	23732.6
520.909	24084.23
521.276	24109.76
521.643	24512.91
522.009	24662.52
522.376	24947.25
522.743	25149.51
523.11	25403.51
523.477	25761.7
523.843	25968.92
524.21	26137.28
524.577	26533.43
524.943	26650.49
525.31	26821.78
525.676	27215.67
526.043	27383.57
526.409	27578.14
526.776	27907.18
527.142	27966.61
527.508	28290.22
527.874	28577.67
528.241	28688.4
528.607	28860.82
528.973	29272.11
529.339	29289.96
529.705	29678.2
530.071	29869.84
530.437	30124.52
530.803	30358.41
531.169	30560.89
531.535	30570.16
531.901	30745.97
532.267	31036.36
532.632	31286.3
532.998	31295.11
533.364	31566.06
533.73	31679.51
534.095	31933.74
534.461	32099.83
534.826	32307.96
535.192	32350
535.557	32574.85
535.923	32707.73
536.288	32846.25
536.653	33043.09
537.019	33023.2
537.384	33419.35
537.749	33498.67
538.114	33614.82
538.479	33591.32
538.845	33789.06
539.21	33775.04
539.575	33947.69
539.94	34083.06
540.305	34335.48
540.67	34406.67
541.034	34553.78
541.399	34683.49
541.764	34788.35
542.129	34772.98
542.494	35043.26
542.858	35355.79
543.223	35158.06
543.587	35339.75
543.952	35291.61
544.316	35586.97
544.681	35624.94
545.045	35929.11
545.41	36010.92
545.774	36008.66
546.138	36053.4
546.503	36106.06
546.867	36233.51
547.231	36576.55
547.595	36684.57
547.959	36687.28
548.324	36767.51
548.688	36924.57
549.052	37064.68
549.416	37026.03
549.779	37138.8
550.143	37310.77
550.507	37561.61
550.871	37663.53
551.235	37620.37
551.599	38049.28
551.962	38127.92
552.326	38146
552.689	38362.95
553.053	38076.17
553.417	38328.6
553.78	38582.6
554.143	38787.79
554.507	38965.19
554.87	39023.95
555.234	39427.55
555.597	39168.8
555.96	39386.65
556.323	39512.97
556.686	39666.41
557.05	39954.77
557.413	40098.04
557.776	40038.38
558.139	40435.89
558.502	40404.93
558.865	40463.68
559.228	40798.59
559.59	40874.07
559.953	41010.33
560.316	41529.42
560.679	41365.35
561.041	41629.07
561.404	41962.4
561.767	42182.05
562.129	42116.29
562.492	42633.34
562.854	42475.61
563.217	42640.12
563.579	42848.93
563.941	43088.92
564.304	43303.83
564.666	43580.44
565.028	43560.55
565.39	43847.32
565.753	44017.49
566.115	44059.75
566.477	44205.05
566.839	44445.5
567.201	44866.05
567.563	44785.38
567.925	45062.66
568.287	45169.55
568.648	45276.21
569.01	45510.33
569.372	45936.08
569.734	45774.28
570.095	46124.55
570.457	46249.97
570.819	46382.85
571.18	46459.46
571.542	46769.96
571.903	46792.55
572.265	47008.37
572.626	47227.12
572.987	47201.81
573.349	47432.76
573.71	47639.99
574.071	47884.28
574.432	48027.55
574.794	48307.54
575.155	48325.62
575.516	48339.18
575.877	48677.03
576.238	48621.89
576.599	48888.77
576.96	48937.36
577.32	49062.78
577.681	49262.09
578.042	49521.97
578.403	49569.21
578.763	49568.75
579.124	49773.72
579.485	50023.43
579.845	50172.58
580.206	50040.61
580.566	50311.33
580.927	50396.3
581.287	50632
581.648	50639.01
582.008	50933.91
582.368	50933.01
582.728	51064.98
583.089	51163.29
583.449	51260.01
583.809	51404.19
584.169	51589.04
584.529	51575.71
584.889	51889.82
585.249	51737.74
585.609	51671.52
585.969	52093.43
586.329	52014.34
586.688	52237.16
587.048	52370.71
587.408	52486.42
587.768	52448.45
588.127	52763.25
588.487	52681.21
588.846	53089.34
589.206	52831.94
589.565	53088.43
589.925	53369.33
590.284	53332.5
590.643	53456.56
591.003	53586.73
591.362	53825.82
591.721	53862.43
592.08	53952.14
592.44	54123.66
592.799	54145.81
593.158	54207.05
593.517	54294.73
593.876	54485.69
594.235	54527.04
594.593	54568.4
594.952	54768.16
595.311	54844.09
595.67	54927.26
596.029	55169.96
596.387	55383.06
596.746	55481.14
597.104	55409.28
597.463	55497.41
597.822	55715.94
598.18	55710.51
598.538	55773.34
598.897	56046.55
599.255	55944.18
599.613	56309.59
599.972	56269.14
600.33	56312.3
600.688	56363.38
601.046	56517.5
601.404	56758.62
601.762	56808.56
602.12	56889.92
602.478	56963.81
602.836	57083.36
603.194	56976.92
603.552	57090.14
603.91	57044.49
604.268	57238.61
604.625	57345.27
604.983	57493.97
605.341	57373.07
605.698	57623.23
606.056	57864.13
606.413	57820.29
606.771	57971.24
607.128	58018.47
607.485	58022.77
607.843	58121.75
608.2	58275.42
608.557	58396.77
608.914	58389.31
609.272	58580.49
609.629	58739.81
609.986	58756.08
610.343	58711.34
610.7	59054.38
611.057	59025.23
611.414	59015.28
611.771	59161.95
612.127	59216.18
612.484	59231.78
612.841	59347.48
613.198	59271.1
613.554	59349.96
613.911	59556.97
614.267	59630.41
614.624	59585.44
614.98	59726.68
615.337	59887.8
615.693	59882.38
616.05	59919.22
616.406	60064.3
616.762	60027.46
617.118	60086.22
617.475	60087.12
617.831	60223.39
618.187	60247.34
618.543	60285.53
618.899	60471.52
619.255	60379.77
619.611	60461.35
619.967	60584.06
620.323	60602.81
620.678	60551.97
621.034	60539.76
621.39	60567.33
621.746	60632.87
622.101	60855.01
622.457	60681
622.812	60857.5
623.168	60900.88
623.523	60888.46
623.879	60921
624.234	60838.97
624.589	60978.4
624.945	60985.85
625.3	60965.52
625.655	61012.07
626.01	60989.92
626.365	61130.26
626.72	61023.59
627.075	61017.72
627.43	61047.1
627.785	61102.69
628.14	61128.68
628.495	61121.9
628.85	61150.14
629.205	61117.38
629.559	61199.86
629.914	61101.11
630.269	61144.49
630.623	61019.07
630.978	61020.66
631.332	61143.36
631.687	61122.8
632.041	61094.55
632.396	61096.81
632.75	61052.74
633.104	61138.39
633.459	60901.34
633.813	60944.05
634.167	60975.46
634.521	60895.46
634.875	60971.84
635.229	60902.01
635.583	60779.53
635.937	60764.84
636.291	60833.54
636.645	60831.96
636.999	60698.63
637.352	60832.64
637.706	60694.34
638.06	60792.64
638.413	60698.63
638.767	60628.12
639.121	60669.93
639.474	60596.71
639.828	60602.14
640.181	60587.45
640.534	60623.15
640.888	60557.62
641.241	60461.57
641.594	60484.17
641.947	60551.06
642.301	60507
642.654	60484.17
643.007	60409.6
643.36	60466.09
643.713	60384.06
644.066	60492.76
644.419	60294.12
644.771	60039.44
645.124	59849.39
645.477	59832.89
645.83	59740.01
646.182	59665.21
646.535	59671.09
646.888	59769.16
647.24	59582.5
647.593	59772.78
647.945	59608.26
648.298	59488.49
648.65	59415.73
649.002	59312.23
649.355	59304.99
649.707	59285.11
650.059	59253.02
650.411	59580.02
650.763	59681.26
651.115	60051.19
651.467	59964.86
651.819	59930.29
652.171	59817.98
652.523	59754.7
652.875	59763.74
653.227	59644.87
653.578	59811.2
653.93	59713.12
654.282	59632.44
654.633	59605.1
654.985	59610.3
655.337	59641.48
655.688	59613.46
656.039	59665.89
656.391	59418.66
656.742	59523.07
657.094	59440.36
657.445	59547.02
657.796	59534.37
658.147	59448.72
658.498	59425.22
658.849	59507.25
659.2	59431.09
659.551	59344.99
659.902	59485.1
660.253	59364.43
660.604	59398.55
660.955	59286.24
661.306	59439.91
661.656	59321.04
662.007	59300.47
662.358	59368.04
662.708	59323.98
663.059	59312.9
663.409	59146.35
663.76	59347.71
664.11	59323.75
664.461	59285.79
664.811	59260.48
665.161	59323.75
665.511	59219.35
665.862	59316.75
666.212	59316.75
666.562	59297.08
666.912	59260.93
667.262	59194.26
667.612	59184.09
667.962	59235.84
668.312	59175.28
668.662	59269.97
669.011	59190.87
669.361	59142.74
669.711	59192
670.06	59076.98
670.41	59040.59
670.76	59086.69
671.109	59107.94
671.459	59091.21
671.808	59048.5
672.157	59129.18
672.507	58960.82
672.856	58978.9
673.205	59045.79
673.554	59054.61
673.904	59028.84
674.253	59189.52
674.602	58977.32
674.951	58696.42
675.3	58567.16
675.649	59002.18
675.998	59041.27
676.346	58951.78
676.695	59051.44
677.044	58896.64
677.393	58936.64
677.741	59000.14
678.09	58907.94
678.438	58880.82
678.787	58900.49
679.135	58879.47
679.484	58761.73
679.832	58855.97
680.181	58749.08
680.529	58808.96
680.877	58613.94
681.225	58719.25
681.573	58863.88
681.922	58695.97
682.27	58615.52
682.618	58660.04
682.966	58545.01
683.314	58621.85
683.661	58581.17
684.009	58520.16
684.357	58404.9
684.705	58324.91
685.053	58434.96
685.4	58291.24
685.748	58220.5
686.095	58302.53
686.443	58175.08
686.79	58196.55
687.138	58234.74
687.485	58163.33
687.832	58152.93
688.18	58087.4
688.527	58077.46
688.874	58018.02
689.221	57996.1
689.568	57913.39
689.915	57823
690.262	57855.31
690.609	57817.35
690.956	57755.43
691.303	57720.4
691.65	57693.51
691.997	57596.79
692.344	57547.07
692.69	57486.29
693.037	57478.6
693.383	57261.88
693.73	57374.88
694.077	57180.98
694.423	57216.24
694.769	57117.71
695.116	57115
695.462	57027.99
695.808	56862.35
696.155	57019.18
696.501	56830.94
696.847	56902.57
697.193	56673.88
697.539	56717.04
697.885	56549.36
698.231	56482.92
698.577	56568.34
698.923	56504.62
699.269	56354.34
699.614	56277.5
699.96	56181.46
700.306	56247
700.651	56063.95
700.997	55987.34
701.342	56019.66
701.688	55967.23
702.033	55887.01
702.379	55882.94
702.724	55752.32
703.069	55809.94
703.415	55452.67
703.76	55477.98
704.105	55500.57
704.45	55373.57
704.795	55388.04
705.14	55192.33
705.485	55240.92
705.83	55069.63
706.175	55213.12
706.52	55037.31
706.865	55023.52
707.209	54906.01
707.554	54849.74
707.899	54863.98
708.243	54738.79
708.588	54682.74
708.932	54454.73
709.277	54604.78
709.621	54397.33
709.966	54195.07
710.31	54353.71
710.654	54110.1
710.998	54149.2
711.342	54223.32
711.687	54088.41
712.031	53944.46
712.375	53859.04
712.719	53790.79
713.063	53791.47
713.407	53916.21
713.75	53662.88
714.094	53698.81
714.438	53543.56
714.782	53506.73
715.125	53379.5
715.469	53482.55
715.812	53272.84
716.156	53268.09
716.499	53276.23
716.843	53203.01
717.186	53026.29
717.53	53251.37
717.873	53143.8
718.216	53160.07
718.559	53053.41
718.902	52737.94
719.246	52791.95
719.589	52782
719.932	52648.67
720.275	52723.47
720.617	52679.18
720.96	52413.88
721.303	52552.86
721.646	52543.36
721.989	52366.42
722.331	52429.69
722.674	52213.66
723.016	52385.63
723.359	52182.02
723.701	52231.73
724.044	52151.74
724.386	51880.1
724.729	52140.66
725.071	52064.28
725.413	51951.29
725.755	51836.04
726.097	51849.6
726.439	51657.51
726.782	51650.05
727.124	51916.26
727.465	51606.21
727.807	51443.51
728.149	51507.69
728.491	51377.52
728.833	51355.37
729.175	51351.31
729.516	51250.29
729.858	51310.63
730.199	51315.15
730.541	51298.88
730.882	51007.59
731.224	51197.86
731.565	51023.63
731.906	51044.65
732.248	51003.74
732.589	50911.09
732.93	50796.29
733.271	50910.86
733.612	50782.96
733.953	50878.78
734.294	50763.75
734.635	50593.81
734.976	50707.25
735.317	50674.49
735.658	50606.69
735.999	50452.57
736.339	50443.08
736.68	50505
737.021	50414.38
737.361	50269.53
737.702	50505.9
738.042	50332.12
738.383	50345.23
738.723	50428.84
739.063	50172.81
739.404	50327.83
739.744	50269.3
740.084	50100.94
740.424	50164.9
740.764	49956.99
741.104	50113.37
741.444	49941.17
741.784	49686.26
742.124	49795.64
742.464	49853.49
742.804	49684.91
743.143	49639.26
743.483	49664.57
743.823	49577.57
744.162	49569.88
744.502	49505.93
744.841	49484.46
745.181	49625.02
745.52	49420.28
745.86	49358.14
746.199	49361.3
746.538	49262.77
746.877	49454.41
747.216	49184.36
747.556	49110.69
747.895	49111.36
748.234	49018.03
748.573	48993.85
748.911	48751.83
749.25	48825.95
749.589	48763.12
749.928	48743.24
750.267	48703.01
750.605	48567.42
750.944	48637.93
751.283	48484.04
751.621	48514.32
751.96	48236.58
752.298	48227.55
752.636	48255.12
752.975	48221.44
753.313	48008.57
753.651	48269.35
753.989	47883.83
754.327	47984.39
754.666	47733.77
755.004	47768.57
755.342	47786.43
755.679	47626.43
756.017	47407.91
756.355	47567.45
756.693	47329.49
757.031	47303.5
757.368	47161.81
757.706	47271.19
758.044	46972.44
758.381	46984.19
758.719	46845.21
759.056	46865.1
759.394	46816.06
759.731	46495.84
760.068	46404.09
760.405	46405.9
760.743	46153.7
761.08	46197.99
761.417	45988.96
761.754	46010.43
762.091	45915.74
762.428	45514.4
762.765	45655.41
763.102	45624.45
763.438	45409.54
763.775	45226.72
764.112	45202.99
764.449	45121.19
764.785	44932.49
765.122	44790.8
765.458	44641.88
765.795	44656.57
766.131	44488.21
766.467	44395.56
766.804	44044.6
767.14	43956.47
767.476	43652.3
767.812	43626.76
768.148	43686.2
768.485	43633.32
768.821	43273.78
769.157	43241.01
769.492	43020.22
769.828	42987.91
770.164	42711.08
770.5	42661.36
770.836	42613.68
771.171	42276.74
771.507	42227.48
771.842	41982.29
772.178	41927.6
772.513	41795.17
772.849	41748.39
773.184	41631.79
773.519	41456.42
773.855	41255.07
774.19	41235.19
774.525	40991.8
774.86	41028.86
775.195	40883.78
775.53	40789.55
775.865	40418.94
776.2	40165.84
776.535	39923.58
776.87	39961.32
777.205	39642.69
777.539	39499.41
777.874	39607.66
778.209	39241.12
778.543	39204.51
778.878	39127.67
779.212	39107.79
779.547	38750.96
779.881	38671.41
780.215	38490.63
780.55	38496.95
780.884	38215.38
781.218	38023.29
781.552	38227.13
781.886	37825.56
782.22	37673.47
782.554	37462.4
782.888	37207.95
783.222	37231.45
783.556	37129.31
783.889	37088.86
784.223	36768.19
784.557	36732.93
784.89	36707.62
785.224	36500.17
785.557	36298.14
785.891	36307.18
786.224	36244.13
786.558	36152.38
786.891	35913.97
787.224	35644.6
787.557	35492.74
787.891	35476.69
788.224	35143.14
788.557	35231.73
788.89	35109.7
789.223	35138.85
789.556	34848.46
789.888	34730.5
790.221	34512.88
790.554	34520.79
790.887	34545.19
791.219	34418.87
791.552	34137.07
791.884	34119.44
792.217	33965.1
792.549	33869.96
792.882	33572.56
793.214	33457.31
793.546	33566.46
793.879	33325.56
794.211	33117.43
794.543	33193.14
794.875	33032.69
795.207	32958.12
795.539	32881.73
795.871	32949.98
796.203	32668.63
796.535	32407.17
796.867	32472.48
797.198	32242.88
797.53	32184.13
797.862	32006.96
798.193	32108.65
798.525	31902.1
798.856	31949.1
799.188	31464.14
799.519	31313.19
799.85	31366.52
800.182	31331.27
800.513	31407.42
800.844	30946.87
801.175	31219.86
801.506	31150.03
801.837	30952.07
802.168	30814.67
802.499	30776.93
802.83	30590.5
803.161	30497.39
803.491	30520.21
803.822	30554.79
804.153	30216.49
804.483	30023.28
804.814	30078.19
805.145	29973.11
805.475	29927.91
805.805	29900.34
806.136	29842.04
806.466	29663.97
806.796	29582.16
807.126	29489.51
807.457	29451.99
807.787	29391.66
808.117	29275.05
808.447	29194.6
808.777	29238.44
809.107	28940.59
809.436	28855.17
809.766	28834.84
810.096	28886.59
810.426	28761.39
810.755	28734.27
811.085	28714.84
811.414	28703.31
811.744	28523.43
812.073	28519.82
812.403	28341.74
812.732	28173.84
813.061	28348.07
813.39	27960.96
813.719	28036.44
814.049	28155.3
814.378	28092.48
814.707	27834.41
815.036	27954.41
815.365	27785.82
815.693	27532.72
816.022	27523.01
816.351	27413.63
816.68	27438.49
817.008	27446.17
817.337	27188.32
817.665	27220.41
817.994	27237.14
818.322	27186.74
818.651	27021.1
818.979	27034.66
819.307	26908.11
819.636	26980.19
819.964	26803.7
820.292	26937.71
820.62	26772.97
820.948	26819.29
821.276	26942.46
821.604	26775.45
821.932	26959.4
822.259	26835.79
822.587	26852.97
822.915	26671.73
823.243	26836.24
823.57	26620.2
823.898	26842.12
824.225	26630.37
824.553	26788.34
824.88	26738.62
825.207	26809.58
825.535	26684.84
825.862	26771.39
826.189	26732.97
826.516	26850.71
826.843	26820.88
827.17	26870.82
827.497	26706.98
827.824	26857.03
828.151	26831.27
828.478	26652.29
828.805	26924.38
829.131	26823.36
829.458	26831.5
829.785	26647.77
830.111	26740.88
830.438	26836.92
830.764	26771.39
831.09	26803.02
831.417	26720.99
831.743	26803.02
832.069	26759.64
832.395	26708.79
832.722	26682.8
833.048	26643.71
833.374	26726.87
833.7	26581.56
834.026	26691.16
834.351	26617.72
834.677	26591.5
835.003	26573.88
835.329	26619.75
835.654	26659.3
835.98	26328.01
836.306	26544.73
836.631	26433.99
836.956	26461.79
837.282	26508.57
837.607	26380.89
837.932	26269.93
838.258	26245.98
838.583	26206.2
838.908	26083.95
839.233	26214.11
839.558	26096.15
839.883	25973.22
840.208	25877.62
840.533	25997.17
840.858	25999.43
841.182	25909.49
841.507	25885.76
841.832	25740
842.156	25712.21
842.481	25753.79
842.805	25622.04
843.13	25503.17
843.454	25518.54
843.778	25484.87
844.103	25324.19
844.427	25401.03
844.751	25321.71
845.075	25138.21
845.399	25209.39
845.723	24973.69
846.047	25116.06
846.371	24921.72
846.695	24865.22
847.019	24643.98
847.343	24623.42
847.666	24452.35
847.99	24310.89
848.313	24313.82
848.637	24230.21
848.96	24202.41
849.284	24030.44
849.607	23957
849.931	23901.86
850.254	23705.03
850.577	23677.91
850.9	23494.41
851.223	23555.2
851.546	23364.02
851.869	23192.27
852.192	23422.1
852.515	23039.06
852.838	23098.71
853.161	22912.05
853.483	22777.14
853.806	22746.63
854.129	22647.43
854.451	22658.05
854.774	22448.11
855.096	22384.16
855.419	22402.24
855.741	22385.74
856.063	22192.52
856.385	22248.12
856.708	22117.27
857.03	22079.53
857.352	21955.69
857.674	22086.09
857.996	21772.87
858.318	21683.84
858.64	21739.43
858.961	21606.55
859.283	21563.61
859.605	21545.76
859.926	21492.88
860.248	21488.14
860.57	21342.15
860.891	21344.64
861.212	21258.99
861.534	21125.66
861.855	21059.22
862.176	21158.2
862.498	21103.29
862.819	21153.46
863.14	21160.69
863.461	20981.71
863.782	20839.34
864.103	20892.22
864.424	20800.02
864.745	20976.28
865.065	20807.48
865.386	20683.64
865.707	20685.67
866.027	20749.85
866.348	20613.36
866.668	20570.19
866.989	20572.45
867.309	20399.58
867.63	20407.03
867.95	20489.52
868.27	20296.98
868.59	20471.44
868.91	20363.19
869.23	20257.21
869.55	20240.71
869.87	20281.39
870.19	20158
870.51	20131.56
870.83	20012.24
871.15	20053.37
871.469	20065.57
871.789	20020.38
872.109	20111
872.428	19974.5
872.748	20031.22
873.067	19943.32
873.386	19881.4
873.706	19867.39
874.025	19739.48
874.344	19763.21
874.663	19686.38
874.982	19686.6
875.301	19629.88
875.62	19598.02
875.939	19588.52
876.258	19585.13
876.577	19522.99
876.896	19445.03
877.214	19350.34
877.533	19330
877.852	19490.9
878.17	19440.28
878.489	19340.17
878.807	19271.02
879.125	19374.29
879.444	19112.15
879.762	19070.35
880.08	19312.15
880.398	19073.06
880.716	19066.96
881.034	19090.68
881.352	19062.44
881.67	18939.95
881.988	18935.66
882.306	18855.66
882.624	18714.42
882.941	18767.98
883.259	18844.82
883.577	18806.4
883.894	18688.66
884.212	18625.84
884.529	18567.76
884.846	18476.24
885.164	18334.55
885.481	18450.93
885.798	18453.64
886.115	18339.52
886.432	18480.76
886.75	18457.48
887.067	18392.17
887.383	18252.97
887.7	18280.08
888.017	18107.21
888.334	18106.53
888.651	18092.29
888.967	18012.75
889.284	17934.78
889.6	17877.61
889.917	17918.74
890.233	17921.9
890.55	17816.82
890.866	17717.84
891.182	17743.6
891.498	17613.21
891.815	17523.72
892.131	17514.45
892.447	17596.71
892.763	17454.57
893.079	17341.13
893.395	17358.3
893.71	17213.9
894.026	17263.61
894.342	17187.46
894.657	17053.45
894.973	17014.13
895.289	17023.39
895.604	16952.21
895.92	16908.59
896.235	16908.14
896.55	16795.6
896.865	16707.47
897.181	16722.16
897.496	16644.42
897.811	16673.8
898.126	16476.74
898.441	16479.91
898.756	16425.22
899.071	16361.26
899.386	16394.48
899.7	16191.33
900.015	16080.82
900.33	15995.85
900.644	15904.1
900.959	15920.82
901.273	15965.79
901.588	15865.01
901.902	15870.88
902.216	15706.37
902.531	15715.41
902.845	15629.76
903.159	15583.43
903.473	15453.49
903.787	15430.67
904.101	15316.55
904.415	15292.59
904.729	15222.54
905.042	15175.31
905.356	15136.89
905.67	15185.25
905.984	15119.94
906.297	15008.08
906.611	14929.21
906.924	14893.51
907.237	14797.92
907.551	14745.26
907.864	14750.01
908.177	14761.08
908.491	14673.85
908.804	14568.54
909.117	14548.88
909.43	14301.21
909.743	14344.37
910.056	14356.8
910.368	14244.48
910.681	14211.49
910.994	14145.5
911.307	14067.09
911.619	13950.25
911.932	14057.82
912.244	13836.81
912.557	13856.7
912.869	13795.23
913.181	13688.79
913.494	13767.21
913.806	13634.56
914.118	13611.05
914.43	13452.87
914.742	13444.96
915.054	13401.57
915.366	13346.2
915.678	13336.94
915.99	13213.1
916.302	13150.73
916.613	13109.82
916.925	13103.5
917.236	13098.75
917.548	12905.08
917.859	12976.72
918.171	12820.79
918.482	12786.22
918.794	12781.7
919.105	12744.41
919.416	12606.79
919.727	12609.95
920.038	12577.64
920.349	12496.06
920.66	12354.36
920.971	12397.08
921.282	12404.08
921.593	12306.91
921.903	12035.73
922.214	12211.77
922.525	12118.21
922.835	12035.05
923.146	11967.48
923.456	11900.14
923.767	11867.6
924.077	11901.72
924.387	11849.74
924.697	11758.22
925.008	11697.88
925.318	11639.58
925.628	11645.68
925.938	11521.62
926.248	11438
926.558	11450.21
926.867	11361.62
927.177	11306.03
927.487	11269.65
927.796	11180.16
928.106	11255.18
928.416	11118.01
928.725	11166.6
929.034	11087.05
929.344	11064.45
929.653	10994.85
929.962	10919.37
930.271	10798.25
930.581	10839.38
930.89	10718.7
931.199	10697.01
931.508	10724.8
931.817	10582.89
932.125	10585.6
932.434	10491.14
932.743	10401.65
933.051	10398.94
933.36	10445.26
933.669	10325.72
933.977	10261.54
934.286	10250.92
934.594	10260.86
934.902	10179.05
935.21	10145.61
935.519	10051.83
935.827	10015.67
936.135	9964.82
936.443	9846.18
936.751	9852.51
937.059	9873.3
937.367	9838.95
937.674	9933.86
937.982	9793.3
938.29	9744.26
938.597	9640.76
938.905	9561.67
939.213	9585.85
939.52	9536.13
939.827	9499.52
940.135	9467.66
940.442	9426.76
940.749	9393.76
941.056	9420.43
941.363	9213.2
941.67	9256.14
941.977	9138.4
942.284	9106.54
942.591	9119.2
942.898	9080.55
943.205	9080.1
943.511	8984.28
943.818	8986.32
944.125	8897.96
944.431	8881.24
944.738	8876.72
945.044	8848.47
945.35	8779.77
945.657	8697.51
945.963	8731.86
946.269	8645.54
946.575	8597.18
946.881	8566.44
947.187	8552.2
947.493	8503.84
947.799	8452.55
948.105	8444.86
948.41	8333.68
948.716	8363.73
949.022	8328.48
949.327	8330.29
949.633	8175.27
949.938	8178.66
950.244	8186.79
950.549	8104.08
950.854	8056.85
951.16	8053.23
951.465	7943.18
951.77	7891.2
952.075	7886.69
952.38	7881.71
952.685	7856.63
952.99	7777.99
953.294	7821.38
953.599	7718.78
953.904	7697.31
954.209	7686.46
954.513	7655.05
954.818	7648.5
955.122	7590.65
955.426	7578.44
955.731	7484.44
956.035	7421.16
956.339	7454.38
956.643	7386.81
956.948	7371.9
957.252	7323.99
957.556	7342.97
957.86	7264.33
958.163	7270.43
958.467	7235.4
958.771	7206.03
959.075	7182.75
959.378	7134.61
959.682	7107.04
959.985	7065.46
960.289	7019.14
960.592	6912.7
960.896	6948.4
961.199	6907.95
961.502	6905.24
961.805	6880.84
962.108	6833.15
962.411	6786.83
962.714	6707.28
963.017	6724.23
963.32	6733.5
963.623	6688.75
963.926	6639.26
964.228	6628.19
964.531	6639.49
964.833	6599.49
965.136	6530.11
965.438	6457.34
965.741	6422.99
966.043	6411.7
966.345	6319.04
966.648	6355.43
966.95	6410.57
967.252	6253.51
967.554	6287.41
967.856	6279.72
968.158	6214.86
968.46	6171.48
968.761	6161.08
969.063	6166.28
969.365	6098.03
969.666	6079.95
969.968	6040.18
970.269	6008.54
970.571	6018.03
970.872	6008.09
971.174	5908.21
971.475	5872.5
971.776	5911.82
972.077	5852.16
972.378	5832.05
972.679	5858.04
972.98	5807.42
973.281	5769.23
973.582	5746.18
973.883	5698.49
974.183	5671.6
974.484	5658.95
974.785	5593.86
975.085	5565.39
975.386	5608.33
975.686	5546.86
975.986	5537.82
976.287	5500.31
976.587	5455.34
976.887	5422.8
977.187	5406.52
977.487	5396.58
977.787	5397.94
978.087	5338.73
978.387	5328.33
978.687	5312.52
978.987	5241.78
979.286	5278.62
979.586	5244.72
979.885	5241.11
980.185	5201.11
980.484	5154.78
980.784	5126.76
981.083	5094.22
981.382	5092.18
981.682	5054.9
981.981	5045.86
982.28	5024.16
982.579	4949.14
982.878	4956.82
983.177	4932.64
983.475	4936.25
983.774	4895.58
984.073	4917.95
984.372	4851.51
984.67	4881.34
984.969	4804.51
985.267	4798.18
985.566	4730.16
985.864	4697.39
986.162	4738.07
986.461	4691.29
986.759	4693.1
987.057	4640.44
987.355	4630.5
987.653	4615.81
987.951	4581.46
988.249	4571.74
988.547	4574.46
988.844	4543.04
989.142	4514.8
989.44	4449.26
989.737	4465.31
990.035	4425.53
990.332	4397.51
990.63	4401.13
990.927	4379.88
991.224	4333.33
991.521	4287.01
991.819	4338.98
992.116	4294.92
992.413	4272.99
992.71	4292.88
993.006	4241.81
993.303	4236.16
993.6	4215.14
993.897	4182.38
994.193	4141.47
994.49	4082.94
994.787	4080.46
995.083	4071.64
995.379	4039.33
995.676	4049.27
995.972	3991.42
996.268	4017.18
996.565	3973.12
996.861	3948.26
997.157	3915.49
997.453	3934.02
997.749	3904.19
998.044	3845.66
998.34	3825.32
998.636	3824.65
998.932	3829.16
999.227	3812.44
999.523	3740.81
999.818	3692.45
1000.114	3676.85
1000.409	3676.17
1000.704	3652.67
1001	3648.6
1001.295	3650.86
1001.59	3637.76
1001.885	3621.03
1002.18	3568.83
1002.475	3560.92
1002.77	3537.65
1003.065	3551.88
1003.359	3546.01
1003.654	3463.52
1003.949	3427.59
1004.243	3424.88
1004.538	3402.74
1004.832	3386.01
1005.127	3402.06
1005.421	3401.83
1005.715	3310.99
1006.009	3346.69
1006.304	3322.29
1006.598	3285
1006.892	3257.43
1007.186	3218.11
1007.48	3207.94
1007.773	3189.18
1008.067	3179.24
1008.361	3138.56
1008.655	3132.91
1008.948	3114.16
1009.242	3086.81
1009.535	3084.55
1009.829	3049.98
1010.122	3010.66
1010.415	3081.16
1010.708	2950.09
1011.001	2978.79
1011.295	2960.04
1011.588	2925.01
1011.881	2948.74
1012.173	2922.07
1012.466	2910.54
1012.759	2870.55
1013.052	2886.59
1013.344	2864.9
1013.637	2801.62
1013.93	2820.6
1014.222	2775.18
1014.514	2770.21
1014.807	2751
1015.099	2740.61
1015.391	2717.78
1015.683	2687.27
1015.976	2685.24
1016.268	2652.25
1016.56	2643.89
1016.851	2620.84
1017.143	2640.5
1017.435	2592.81
1017.727	2535.64
1018.018	2550.78
1018.31	2538.13
1018.602	2501.74
1018.893	2513.04
1019.185	2495.87
1019.476	2492.02
1019.767	2437.11
1020.058	2437.34
1020.35	2419.48
1020.641	2404.8
1020.932	2396.66
1021.223	2353.95
1021.514	2353.72
1021.804	2343.55
1022.095	2303.78
1022.386	2276.89
1022.677	2302.43
1022.967	2297.45
1023.258	2247.51
1023.548	2220.17
1023.839	2243.67
1024.129	2224.91
1024.419	2214.52
1024.709	2161.86
1025	2170.45
1025.29	2152.15
1025.58	2120.51
1025.87	2116.44
1026.16	2125.71
1026.449	2102.43
1026.739	2072.15
1027.029	2055.88
1027.319	1988.76
1027.608	2033.96
1027.898	1963.45
1028.187	2026.05
1028.477	1950.34
1028.766	1985.6
1029.055	1956.22
1029.344	1934.07
1029.634	1908.76
1029.923	1909.22
1030.212	1919.61
1030.501	1860.86
1030.79	1862.89
1031.078	1861.76
1031.367	1819.95
1031.656	1866.28
1031.945	1808.65
1032.233	1814.98
1032.522	1779.28
1032.81	1774.98
1033.099	1749.22
1033.387	1754.87
1033.675	1732.72
1033.963	1720.97
1034.251	1716.45
1034.54	1701.99
1034.828	1672.84
1035.116	1666.96
1035.403	1667.19
1035.691	1640.3
1035.979	1624.93
1036.267	1656.57
1036.554	1609.56
1036.842	1589.68
1037.129	1582.22
1037.417	1577.47
1037.704	1545.61
1037.992	1561.88
1038.279	1540.64
1038.566	1520.98
1038.853	1520.98
1039.14	1520.98
