Data from 7548_FLMS001491_004.txt Node
Date: Thu Apr 12 17:06:24 BST 2018
User: hsy
Spectrometer: FLMS00149
Trigger mode: 0
Integration Time (sec): 1.000000E-2
Scans to average: 10
Electric dark correction enabled: true
Nonlinearity correction enabled: false
Boxcar width: 0
XAxis mode: Wavelengths
Number of Pixels in Spectrum: 2048
>>>>>Begin Spectral Data<<<<<
341.393	-39.28
341.776	-39.28
342.16	-39.28
342.543	-69.79
342.927	-68.43
343.31	-84.25
343.693	-68.88
344.077	-56
344.46	-47.87
344.843	-55.32
345.226	-52.61
345.61	-27.75
345.993	-12.61
346.376	-21.65
346.759	7.5
347.142	38.91
347.525	18.57
347.908	62.64
348.291	99.93
348.674	100.15
349.057	99.25
349.44	128.17
349.823	132.92
350.206	173.37
350.588	213.14
350.971	252.92
351.354	251.79
351.737	281.62
352.119	284.78
352.502	314.84
352.884	309.41
353.267	326.81
353.65	326.59
354.032	347.38
354.414	342.86
354.797	356.42
355.179	342.18
355.562	363.87
355.944	380.6
356.326	395.51
356.709	372.91
357.091	385.79
357.473	382.86
357.855	383.08
358.238	379.02
358.62	365.68
359.002	384.21
359.384	358.68
359.766	386.7
360.148	391.22
360.53	403.87
360.912	388.05
361.294	385.79
361.676	371.11
362.057	379.69
362.439	385.12
362.821	368.62
363.203	390.54
363.584	368.62
363.966	380.37
364.348	381.73
364.729	360.71
365.111	364.78
365.493	387.6
365.874	373.82
366.256	381.73
366.637	382.86
367.019	367.04
367.4	353.25
367.781	352.58
368.163	371.78
368.544	371.33
368.925	378.34
369.306	357.55
369.688	386.92
370.069	366.81
370.45	361.39
370.831	372.24
371.212	359.58
371.593	375.63
371.974	366.81
372.355	368.39
372.736	369.07
373.117	382.18
373.498	385.79
373.879	377.43
374.26	391.9
374.641	353.25
375.021	397.09
375.402	395.51
375.783	405
376.163	403.2
376.544	414.72
376.925	398.68
377.305	395.06
377.686	375.4
378.066	389.41
378.447	387.6
378.827	403.42
379.208	411.56
379.588	414.04
379.968	421.95
380.349	420.37
380.729	410.2
381.109	442.29
381.489	423.08
381.87	435.96
382.25	433.7
382.63	416.53
383.01	419.01
383.39	421.5
383.77	428.96
384.15	432.8
384.53	448.17
384.91	420.6
385.29	431.67
385.67	467.83
386.049	449.75
386.429	454.49
386.809	451.33
387.189	462.86
387.568	453.82
387.948	458.56
388.328	442.06
388.707	444.55
389.087	452.69
389.466	474.61
389.846	488.62
390.225	465.57
390.605	482.29
390.984	488.39
391.363	472.12
391.743	492.23
392.122	500.59
392.501	490.2
392.881	473.7
393.26	488.39
393.639	513.25
394.018	509.18
394.397	480.71
394.776	524.1
395.155	503.31
395.534	527.94
395.913	517.77
396.292	519.8
396.671	521.61
397.05	533.14
397.429	537.43
397.808	542.4
398.186	558.9
398.565	545.34
398.944	518.9
399.323	552.57
399.701	561.61
400.08	575.39
400.458	558.67
400.837	548.28
401.215	561.38
401.594	539.24
401.972	553.7
402.351	567.94
402.729	575.85
403.107	576.3
403.486	563.19
403.864	588.73
404.242	589.86
404.62	597.31
404.999	574.94
405.377	607.94
405.755	617.88
406.133	608.39
406.511	613.81
406.889	633.92
407.267	627.82
407.645	614.72
408.023	628.73
408.401	626.01
408.779	653.81
409.156	654.26
409.534	689.74
409.912	655.84
410.29	665.34
410.667	684.54
411.045	698.33
411.422	675.28
411.8	711.66
412.178	694.49
412.555	719.57
412.933	714.37
413.31	728.38
413.687	722.74
414.065	728.38
414.442	742.17
414.819	737.65
415.197	757.76
415.574	778.33
415.951	757.54
416.328	767.25
416.705	762.51
417.082	790.3
417.46	795.73
417.837	794.15
418.214	792.11
418.591	789.4
418.967	811.09
419.344	802.28
419.721	805.44
420.098	828.5
420.475	848.16
420.852	835.73
421.228	832.56
421.605	829.4
421.982	846.12
422.358	870.08
422.735	849.51
423.111	868.27
423.488	874.14
423.864	852.45
424.241	891.32
424.617	899.91
424.994	914.37
425.37	892.9
425.746	917.53
426.123	924.76
426.499	918.44
426.875	944.2
427.251	934.03
427.627	954.82
428.003	978.32
428.379	983.75
428.756	971.54
429.132	979.9
429.507	982.16
429.883	999.11
430.259	1029.62
430.635	1030.52
431.011	1021.71
431.387	1067.13
431.763	1077.98
432.138	1070.07
432.514	1066.68
432.89	1113.69
433.265	1126.79
433.641	1127.47
434.016	1121.37
434.392	1120.46
434.767	1159.56
435.143	1173.8
435.518	1159.11
435.894	1170.86
436.269	1190.75
436.644	1178.32
437.02	1186.45
437.395	1216.06
437.77	1197.98
438.145	1235.72
438.52	1247.02
438.895	1252.44
439.271	1246.11
439.646	1272.78
440.021	1284.53
440.395	1291.76
440.77	1288.14
441.145	1284.98
441.52	1317.3
441.895	1311.42
442.27	1347.8
442.645	1316.62
443.019	1353.68
443.394	1336.5
443.769	1364.3
444.143	1353.23
444.518	1373.79
444.892	1376.05
445.267	1372.89
445.641	1360.01
446.016	1411.76
446.39	1418.31
446.764	1403.17
447.139	1391.42
447.513	1464.86
447.887	1442.72
448.262	1437.29
448.636	1473.9
449.01	1479.33
449.384	1483.85
449.758	1514.35
450.132	1490.85
450.506	1533.11
450.88	1517.06
451.254	1552.32
451.628	1565.2
452.002	1569.94
452.376	1573.33
452.75	1608.36
453.123	1591.41
453.497	1641.81
453.871	1639.55
454.244	1685.42
454.618	1665.31
454.992	1728.58
455.365	1693.56
455.739	1748.24
456.112	1761.58
456.486	1785.08
456.859	1797.96
457.232	1868.02
457.606	1823.27
457.979	1861.91
458.352	1879.99
458.725	1907.34
459.099	1935.36
459.472	1951.63
459.845	1963.83
460.218	2016.26
460.591	2006.54
460.964	2042.7
461.337	2058.52
461.71	2067.56
462.083	2130.16
462.456	2148.69
462.829	2148.23
463.201	2178.52
463.574	2168.12
463.947	2183.26
464.32	2259.87
464.692	2246.99
465.065	2313.2
465.438	2303.03
465.81	2325.63
466.183	2347.33
466.555	2372.64
466.928	2479.98
467.3	2398.85
467.672	2482.91
468.045	2530.6
468.417	2502.58
468.789	2541.67
469.161	2558.85
469.534	2576.47
469.906	2644.49
470.278	2651.5
470.65	2687.66
471.022	2734.66
471.394	2766.98
471.766	2791.83
472.138	2822.79
472.51	2927.87
472.882	2918.61
473.253	2970.59
473.625	2990.02
473.997	3079.74
474.369	3077.7
474.74	3121.32
475.112	3204.7
475.484	3229.34
475.855	3334.19
476.227	3336.9
476.598	3429.78
476.97	3475.66
477.341	3513.85
477.713	3579.38
478.084	3613.73
478.455	3709.78
478.827	3731.02
479.198	3868.19
479.569	3935.98
479.94	3993.84
480.311	4023.44
480.682	4134.62
481.053	4204.45
481.424	4326.71
481.795	4329.65
482.166	4430.89
482.537	4461.39
482.908	4589.07
483.279	4661.84
483.65	4788.39
484.021	4902.06
484.391	4958.78
484.762	5066.35
485.133	5112.22
485.503	5213.24
485.874	5304.76
486.244	5462.27
486.615	5592.44
486.985	5618.65
487.356	5767.12
487.726	5882.15
488.097	6112.65
488.467	6092.76
488.837	6333.66
489.207	6356.94
489.578	6564.84
489.948	6645.97
490.318	6833.31
490.688	6925.06
491.058	7047.54
491.428	7223.36
491.798	7316.23
492.168	7515.1
492.538	7729.56
492.908	7879.16
493.278	8005.26
493.648	8198.24
494.017	8303.78
494.387	8493.15
494.757	8650.66
495.126	8862.41
495.496	8945.57
495.866	9213.81
496.235	9356.18
496.605	9451.32
496.974	9737.19
497.344	9870.29
497.713	10063.28
498.082	10239.32
498.452	10430.05
498.821	10695.35
499.19	10802.24
499.559	11022.58
499.928	11212.63
500.298	11396.13
500.667	11703.69
501.036	11745.04
501.405	12059.61
501.774	12175.54
502.143	12414.41
502.512	12675.64
502.88	12890.1
503.249	13175.29
503.618	13354.27
503.987	13493.92
504.356	13746.8
504.724	14014.14
505.093	14186.79
505.462	14436.05
505.83	14620.22
506.199	14898.18
506.567	15168.23
506.936	15381.56
507.304	15651.83
507.672	15841.43
508.041	15964.14
508.409	16231.93
508.777	16576.33
509.145	16875.53
509.514	17036.88
509.882	17390.77
510.25	17501.5
510.618	17754.6
510.986	17858.1
511.354	18168.38
511.722	18509.16
512.09	18713.22
512.458	18821.92
512.826	19115.92
513.193	19275.02
513.561	19485.18
513.929	19667.77
514.297	20043.81
514.664	20174.88
515.032	20364.93
515.4	20606.73
515.767	20797.46
516.135	21068.41
516.502	21004.01
516.869	21508.63
517.237	21679.7
517.604	21627.5
517.972	22104.77
518.339	22207.37
518.706	22504.76
519.073	22584.31
519.44	22802.83
519.808	23126.89
520.175	23198.53
520.542	23539.76
520.909	23799.42
521.276	23937.94
521.643	24235.11
522.009	24425.16
522.376	24567.08
522.743	24810.69
523.11	25091.13
523.477	25493.38
523.843	25605.47
524.21	25925.46
524.577	26214.95
524.943	26452.91
525.31	26562.73
525.676	26954.14
526.043	27183.96
526.409	27206.33
526.776	27633.21
527.142	27769.71
527.508	28045.63
527.874	28213.31
528.241	28505.51
528.607	28548.22
528.973	28923.58
529.339	29080.86
529.705	29408.76
530.071	29565.14
530.437	29763.33
530.803	30028.41
531.169	30113.83
531.535	30308.17
531.901	30426.59
532.267	30696.64
532.632	30972.11
532.998	31018.44
533.364	31307.24
533.73	31408.71
534.095	31692.99
534.461	31730.73
534.826	31903.61
535.192	32163.72
535.557	32331.4
535.923	32409.81
536.288	32572.29
536.653	32708.33
537.019	32781.33
537.384	32934.32
537.749	33054.09
538.114	33250.02
538.479	33242.11
538.845	33453.63
539.21	33528.65
539.575	33597.58
539.94	33761.87
540.305	34009.32
540.67	34083.21
541.034	34212.7
541.399	34237.79
541.764	34430.32
542.129	34569.3
542.494	34732.69
542.858	34839.8
543.223	34780.37
543.587	35091.55
543.952	34891.33
544.316	35170.64
544.681	35197.76
545.045	35415.16
545.41	35606.79
545.774	35625.77
546.138	35533.57
546.503	35794.36
546.867	35868.48
547.231	36214.46
547.595	36264.17
547.959	36397.73
548.324	36513.66
548.688	36632.07
549.052	36728.34
549.416	36735.57
549.779	36920.2
550.143	36914.78
550.507	37241.1
550.871	37465.72
551.235	37354.09
551.599	37714.3
551.962	37616.68
552.326	37865.04
552.689	38059.61
553.053	37774.87
553.417	38087.63
553.78	38466.38
554.143	38418.92
554.507	38509.76
554.87	38794.5
555.234	39075.4
555.597	38982.75
555.96	39011.45
556.323	39170.09
556.686	39359.01
557.05	39595.16
557.413	39715.61
557.776	39785.89
558.139	40126.67
558.502	40207.12
558.865	40272.43
559.228	40600.1
559.59	40764.17
559.953	40892.07
560.316	41089.36
560.679	41113.54
561.041	41403.25
561.404	41709
561.767	41856.12
562.129	41753.52
562.492	42284.13
562.854	42241.19
563.217	42281.19
563.579	42435.31
563.941	42690.9
564.304	42816.32
564.666	43106.48
565.028	43204.1
565.39	43301.05
565.753	43597.77
566.115	43776.52
566.477	43854.03
566.839	44149.16
567.201	44611.07
567.563	44471.42
567.925	44786.66
568.287	44869.6
568.648	45026.66
569.01	45242.69
569.372	45598.84
569.734	45677.94
570.095	45892.62
570.457	46123.8
570.819	46128.55
571.18	46227.75
571.542	46523.79
571.903	46674.97
572.265	46916.32
572.626	46947.96
572.987	46932.82
573.349	47318.35
573.71	47441.51
574.071	47641.95
574.432	47799.24
574.794	48246.91
575.155	48071.32
575.516	48250.53
575.877	48365.1
576.238	48496.39
576.599	48662.94
576.96	48638.31
577.32	48843.28
577.681	48993.56
578.042	49229.93
578.403	49226.09
578.763	49383.15
579.124	49534.33
579.485	49804.83
579.845	49966.64
580.206	50009.8
580.566	50111.04
580.927	50253.86
581.287	50498.38
581.648	50410.02
582.008	50701.99
582.368	50805.03
582.728	50801.42
583.089	50902.21
583.449	51028.53
583.809	51162.76
584.169	51357.56
584.529	51306.49
584.889	51684.33
585.249	51579.93
585.609	51595.3
585.969	51925
586.329	51812.01
586.688	52096.3
587.048	52267.37
587.408	52313.47
587.768	52343.52
588.127	52552.33
588.487	52587.36
588.846	52915.49
589.206	52759.79
589.565	52899.22
589.925	53187.57
590.284	53197.51
590.643	53347.34
591.003	53426.89
591.362	53730.83
591.721	53746.65
592.08	53815.35
592.44	54039.75
592.799	54033.42
593.158	54194.78
593.517	54224.61
593.876	54393.41
594.235	54401.1
594.593	54458.95
594.952	54679.06
595.311	54697.59
595.67	54767.87
596.029	55073.17
596.387	55204.01
596.746	55319.04
597.104	55245.14
597.463	55388.42
597.822	55591.8
598.18	55591.12
598.538	55625.47
598.897	55923.77
599.255	55791.12
599.613	56167.83
599.972	56088.29
600.33	56219.81
600.688	56195.85
601.046	56378
601.404	56564.43
601.762	56609.85
602.12	56749.06
602.478	56858.89
602.836	56957.64
603.194	56877.19
603.552	57088.94
603.91	57003.29
604.268	57140.91
604.625	57263.4
604.983	57494.8
605.341	57407.35
605.698	57591.52
606.056	57756.94
606.413	57708.13
606.771	57978.4
607.128	57977.05
607.485	57924.85
607.843	57973.21
608.2	58177.27
608.557	58332.52
608.914	58260.66
609.272	58463.82
609.629	58550.37
609.986	58685.05
610.343	58671.27
610.7	58847.99
611.057	58869.68
611.414	58888.89
611.771	59019.06
612.127	59062.67
612.484	59150.58
612.841	59318.93
613.198	59180.18
613.554	59171.82
613.911	59475.54
614.267	59526.39
614.624	59519.83
614.98	59651.81
615.337	59781.3
615.693	59739.71
616.05	59822.65
616.406	59958.24
616.762	59904
617.118	59960.95
617.475	59949.2
617.831	60122.76
618.187	60184.22
618.543	60185.8
618.899	60383.31
619.255	60330.89
619.611	60263.09
619.967	60410.66
620.323	60446.81
620.678	60409.08
621.034	60443.65
621.39	60432.35
621.746	60518.9
622.101	60759.57
622.457	60561.61
622.812	60659.24
623.168	60757.77
623.523	60788.27
623.879	60802.96
624.234	60716.41
624.589	60837.54
624.945	60873.47
625.3	60892
625.655	60924.09
626.01	60934.03
626.365	60894.94
626.72	60856.52
627.075	60927.48
627.43	60895.16
627.785	60952.34
628.14	60931.1
628.495	60989.63
628.85	61014.03
629.205	60952.56
629.559	61022.17
629.914	60973.81
630.269	60995.05
630.623	60873.24
630.978	60884.77
631.332	60975.84
631.687	60943.07
632.041	60913.92
632.396	60915.95
632.75	60835.05
633.104	60933.81
633.459	60888.61
633.813	60829.18
634.167	60786.92
634.521	60898.55
634.875	60823.53
635.229	60779.24
635.583	60676.87
635.937	60669.63
636.291	60623.99
636.645	60689.29
636.999	60645.45
637.352	60674.15
637.706	60500.15
638.06	60605.91
638.413	60501.73
638.767	60432.8
639.121	60578.56
639.474	60442.97
639.828	60400.49
640.181	60428.96
640.534	60442.29
640.888	60311.68
641.241	60279.81
641.594	60359.13
641.947	60392.13
642.301	60306.71
642.654	60287.5
643.007	60274.62
643.36	60296.99
643.713	60201.62
644.066	60281.62
644.419	60128.4
644.771	59870.78
645.124	59681.64
645.477	59682.77
645.83	59551.24
646.182	59543.56
646.535	59518.93
646.888	59618.59
647.24	59516.22
647.593	59579.27
647.945	59500.85
648.298	59460.85
648.65	59311.7
649.002	59180.41
649.355	59179.05
649.707	59159.16
650.059	59099.28
650.411	59398.93
650.763	59564.58
651.115	59890.67
651.467	59757.57
651.819	59758.25
652.171	59769.77
652.523	59707.85
652.875	59667.4
653.227	59560.96
653.578	59716.89
653.93	59614.52
654.282	59530
654.633	59513.05
654.985	59494.3
655.337	59563.45
655.688	59491.13
656.039	59599.15
656.391	59319.16
656.742	59349.44
657.094	59326.62
657.445	59421.08
657.796	59395.77
658.147	59275.09
658.498	59255.43
658.849	59377.46
659.2	59303.57
659.551	59168.43
659.902	59328.88
660.253	59249.11
660.604	59242.78
660.955	59146.96
661.306	59262.66
661.656	59156.45
662.007	59227.64
662.358	59199.84
662.708	59132.05
663.059	59108.09
663.409	59040.52
663.76	59113.52
664.11	59130.92
664.461	59103.8
664.811	59117.58
665.161	59068.09
665.511	59095.21
665.862	59025.83
666.212	59050.92
666.562	59108.77
666.912	59067.42
667.262	58957.36
667.612	58967.31
667.962	59048.21
668.312	58940.19
668.662	59069.9
669.011	59015.89
669.361	59033.97
669.711	58951.03
670.06	58930.47
670.41	58888.44
670.76	58863.35
671.109	58974.99
671.459	58950.81
671.808	58921.66
672.157	58958.94
672.507	58784.49
672.856	58787.2
673.205	58811.6
673.554	58890.25
673.904	58790.81
674.253	58976.57
674.602	58785.39
674.951	58500.65
675.3	58352.41
675.649	58804.6
675.998	58797.14
676.346	58806.18
676.695	58864.26
677.044	58750.81
677.393	58861.77
677.741	58812.51
678.09	58728.44
678.438	58673.75
678.787	58759.4
679.135	58713.53
679.484	58577.03
679.832	58656.35
680.181	58544.04
680.529	58614.77
680.877	58502.91
681.225	58556.24
681.573	58685.96
681.922	58477.15
682.27	58445.51
682.618	58454.1
682.966	58403.48
683.314	58401.44
683.661	58359.64
684.009	58314.44
684.357	58253.43
684.705	58183.15
685.053	58238.96
685.4	58144.73
685.748	58142.47
686.095	58069.93
686.443	58002.36
686.79	57995.81
687.138	58004.84
687.485	58029.25
687.832	57926.65
688.18	57996.94
688.527	57862.7
688.874	57869.26
689.221	57877.62
689.568	57731.41
689.915	57662.71
690.262	57779.77
690.609	57626.1
690.956	57582.03
691.303	57607.12
691.65	57415.03
691.997	57456.84
692.344	57276.05
692.69	57316.5
693.037	57356.05
693.383	57056.17
693.73	57237.41
694.077	57103.17
694.423	57059.11
694.769	57033.12
695.116	56932.1
695.462	56969.84
695.808	56870.19
696.155	56833.12
696.501	56655.28
696.847	56737.53
697.193	56485.11
697.539	56560.82
697.885	56321.5
698.231	56275.62
698.577	56277.21
698.923	56173.03
699.269	56098.91
699.614	55982.75
699.96	55945.92
700.306	56004.9
700.651	55928.52
700.997	55869.53
701.342	55756.32
701.688	55800.84
702.033	55629.09
702.379	55749.54
702.724	55521.52
703.069	55659.82
703.415	55369.21
703.76	55312.49
704.105	55282.66
704.45	55203.79
704.795	55083.34
705.14	54978.94
705.485	55081.76
705.83	54749.56
706.175	54962.44
706.52	54816.45
706.865	54703.24
707.209	54643.8
707.554	54680.86
707.899	54610.58
708.243	54529.68
708.588	54453.75
708.932	54270.71
709.277	54343.7
709.621	54212.4
709.966	54038.4
710.31	54149.58
710.654	53915.91
710.998	53992.52
711.342	54010.6
711.687	53908.91
712.031	53726.54
712.375	53590.05
712.719	53620.33
713.063	53596.37
713.407	53611.51
713.75	53574.45
714.094	53433.67
714.438	53322.26
714.782	53269.15
715.125	53146.67
715.469	53342.37
715.812	53045.65
716.156	53067.35
716.499	53051.75
716.843	53036.16
717.186	52955.94
717.53	52956.84
717.873	52935.37
718.216	52755.72
718.559	52661.48
718.902	52591.88
719.246	52643.86
719.589	52475.72
719.932	52442.28
720.275	52472.11
720.617	52475.95
720.96	52332.45
721.303	52286.35
721.646	52350.3
721.989	52134.26
722.331	52167.03
722.674	52078.67
723.016	52055.85
723.359	51969.07
723.701	51967.72
724.044	51909.19
724.386	51742.86
724.729	51814.95
725.071	51691.34
725.413	51645.24
725.755	51634.39
726.097	51562.75
726.439	51484.34
726.782	51418.13
727.124	51493.38
727.465	51456.32
727.807	51272.82
728.149	51345.36
728.491	51224.91
728.833	51330.67
729.175	51172.93
729.516	51134.74
729.858	51167.06
730.199	51133.16
730.541	51072.82
730.882	50883.22
731.224	50849.1
731.565	50705.83
731.906	50814.3
732.248	50826.73
732.589	50687.98
732.93	50601.2
733.271	50659.28
733.612	50520.52
733.953	50680.74
734.294	50453.18
734.635	50284.14
734.976	50499.96
735.317	50275.56
735.658	50460.41
735.999	50259.06
736.339	50261.77
736.68	50253.86
737.021	50098.84
737.361	50030.82
737.702	50227.87
738.042	50149.68
738.383	50032.63
738.723	50011.16
739.063	49918.73
739.404	49934.32
739.744	49884.15
740.084	49780.2
740.424	49824.5
740.764	49800.54
741.104	49782.91
741.444	49607.33
741.784	49481.68
742.124	49589.25
742.464	49440.55
742.804	49459.98
743.143	49276.94
743.483	49264.28
743.823	49268.13
744.162	49196.49
744.502	49333.66
744.841	49036.95
745.181	49252.31
745.52	49080.56
745.86	49276.49
746.199	49070.16
746.538	49016.15
746.877	49068.36
747.216	48946.55
747.556	48866.78
747.895	48927.57
748.234	48754.47
748.573	48771.64
748.911	48627.24
749.25	48516.05
749.589	48452.33
749.928	48490.97
750.267	48470.63
750.605	48341.37
750.944	48297.08
751.283	48282.39
751.621	48296.17
751.96	48027.03
752.298	47994.49
752.636	48099.79
752.975	48019.12
753.313	47761.5
753.651	48012.34
753.989	47896.86
754.327	47738.22
754.666	47449.87
755.004	47661.84
755.342	47503.2
755.679	47512.01
756.017	47220.27
756.355	47316.09
756.693	47151.57
757.031	47211.68
757.368	46836.55
757.706	46915.64
758.044	46757.46
758.381	46844.91
758.719	46553.17
759.056	46552.04
759.394	46394.98
759.731	46168.77
760.068	46207.87
760.405	46298.71
760.743	46058.27
761.08	45966.07
761.417	45814.66
761.754	45619.86
762.091	45569.69
762.428	45555.45
762.765	45288.34
763.102	45325.18
763.438	45340.77
763.775	44938.07
764.112	44878.64
764.449	44853.1
764.785	44634.8
765.122	44314.81
765.458	44402.49
765.795	44245.43
766.131	44343.28
766.467	44024.87
766.804	43719.34
767.14	43682.28
767.476	43542.17
767.812	43525.23
768.148	43586.01
768.485	43285.23
768.821	43080.49
769.157	42960.27
769.492	42887.95
769.828	42777.9
770.164	42436.21
770.5	42148.99
770.836	42346.5
771.171	42225.37
771.507	42026.51
771.842	41758.04
772.178	41889.11
772.513	41624.94
772.849	41415
773.184	41296.36
773.519	41311.95
773.855	41069.02
774.19	40901.11
774.525	40711.06
774.86	40577.05
775.195	40603.49
775.53	40267.01
775.865	40147.01
776.2	39854.36
776.535	39647.59
776.87	39734.59
777.205	39464.09
777.539	39361.95
777.874	39470.64
778.209	38982.75
778.543	39170.31
778.878	38778.68
779.212	38825.24
779.547	38527.39
779.881	38576.88
780.215	38203.33
780.55	38330.11
780.884	37897.58
781.218	37935.54
781.552	37865.94
781.886	37753.4
782.22	37470.92
782.554	37392.73
782.888	37079.07
783.222	37035.23
783.556	36763.6
783.889	36710.72
784.223	36592.3
784.557	36612.19
784.89	36461.46
785.224	36231.41
785.557	36148.7
785.891	35922.71
786.224	35922.26
786.558	35782.38
786.891	35578.99
787.224	35457.42
787.557	35223.52
787.891	35343.07
788.224	35026.47
788.557	35061.95
788.89	34955.96
789.223	34801.39
789.556	34515.74
789.888	34559.59
790.221	34301.97
790.554	34282.53
790.887	34226.04
791.219	33992.37
791.552	33979.71
791.884	33806.61
792.217	33669.44
792.549	33546.5
792.882	33351.26
793.214	33305.83
793.546	33351.93
793.879	33174.54
794.211	32762.34
794.543	32982.45
794.875	32716.7
795.207	32721.44
795.539	32620.43
795.871	32605.06
796.203	32513.76
796.535	32206.2
796.867	32132.76
797.198	32146.09
797.53	32040.33
797.862	31822.93
798.193	31912.42
798.525	31598.31
798.856	31765.53
799.188	31352.44
799.519	31339.11
799.85	31170.07
800.182	31095.95
800.513	31137.98
800.844	30766.01
801.175	30924.88
801.506	30917.87
801.837	30700.48
802.168	30495.51
802.499	30653.47
802.83	30263.65
803.161	30228.4
803.491	30156.76
803.822	30293.71
804.153	30058.46
804.483	29918.13
804.814	29731.24
805.145	29841.29
805.475	29655.31
805.805	29608.76
806.136	29564.01
806.466	29490.79
806.796	29344.13
807.126	29170.57
807.457	29142.1
807.787	29127.41
808.117	29024.36
808.447	29007.87
808.777	28874.31
809.107	28746.41
809.436	28618.95
809.766	28629.35
810.096	28625.96
810.426	28575.11
810.755	28449.46
811.085	28386.87
811.414	28411.95
811.744	28155.69
812.073	28203.37
812.403	28108
812.732	27985.07
813.061	28042.69
813.39	27899.65
813.719	27845.19
814.049	27913.66
814.378	27825.98
814.707	27689.48
815.036	27659.2
815.365	27471.64
815.693	27350.74
816.022	27241.36
816.351	27315.93
816.68	27106.9
817.008	27280.23
817.337	26897.64
817.665	26923.18
817.994	26957.98
818.322	27015.38
818.651	26846.34
818.979	26660.13
819.307	26769.96
819.636	26663.07
819.964	26556.86
820.292	26701.49
820.62	26583.3
820.948	26664.88
821.276	26644.99
821.604	26522.28
821.932	26703.3
822.259	26611.77
822.587	26599.12
822.915	26499.46
823.243	26596.18
823.57	26460.14
823.898	26661.26
824.225	26540.81
824.553	26539.68
824.88	26461.04
825.207	26621.72
825.535	26422.62
825.862	26611.77
826.189	26468.05
826.516	26619
826.843	26686.12
827.17	26622.85
827.497	26584.88
827.824	26611.55
828.151	26707.59
828.478	26536.75
828.805	26770.41
829.131	26613.13
829.458	26588.04
829.785	26430.08
830.111	26534.94
830.438	26750.75
830.764	26508.95
831.09	26579.68
831.417	26456.97
831.743	26516.86
832.069	26308.05
832.395	26383.53
832.722	26482.96
833.048	26443.41
833.374	26564.32
833.7	26446.13
834.026	26450.65
834.351	26359.35
834.677	26463.3
835.003	26410.2
835.329	26300.14
835.654	26363.42
835.98	26123.42
836.306	26264.66
836.631	26140.6
836.956	26340.59
837.282	26210.43
837.607	26062.18
837.932	26131.56
838.258	26071.22
838.583	25998.91
838.908	25996.87
839.233	25950.09
839.558	25833.26
839.883	25842.07
840.208	25647.5
840.533	25729.99
840.858	25702.19
841.182	25655.86
841.507	25728.86
841.832	25544.68
842.156	25505.59
842.481	25539.71
842.805	25383.33
843.13	25332.48
843.454	25321.64
843.778	25170
844.103	25167.52
844.427	25131.13
844.751	25241.64
845.075	25116.44
845.399	25051.59
845.723	24947.63
846.047	24817.47
846.371	24718.49
846.695	24612.5
847.019	24523.47
847.343	24324.6
847.666	24285.73
847.99	24190.82
848.313	24142.91
848.637	24179.07
848.96	23951.28
849.284	23899.75
849.607	23807.1
849.931	23742.24
850.254	23533.89
850.577	23324.85
850.9	23364.4
851.223	23330.5
851.546	23144.52
851.869	23197.85
852.192	23150.17
852.515	22910.63
852.838	22858.42
853.161	22868.82
853.483	22722.16
853.806	22645.55
854.129	22579.11
854.451	22391.09
854.774	22356.97
855.096	22240.36
855.419	22209.63
855.741	22167.14
856.063	22130.08
856.385	21936.19
856.708	21992.23
857.03	21808.06
857.352	21867.72
857.674	21861.16
857.996	21746.82
858.318	21600.83
858.64	21478.35
858.961	21506.14
859.283	21446.71
859.605	21346.6
859.926	21333.72
860.248	21241.29
860.57	21278.58
860.891	21216.66
861.212	21215.3
861.534	21152.71
861.855	20989.1
862.176	21065.03
862.498	21038.36
862.819	20991.58
863.14	20923.33
863.461	20917.46
863.782	20729.89
864.103	20826.39
864.424	20768.54
864.745	20784.58
865.065	20681.31
865.386	20538.03
865.707	20504.81
866.027	20597.69
866.348	20500.29
866.668	20472.5
866.989	20430.92
867.309	20271.83
867.63	20359.51
867.95	20419.84
868.27	20187.31
868.59	20229.34
868.91	20258.72
869.23	20183.24
869.55	20085.84
869.87	20190.92
870.19	20043.13
870.51	19998.84
870.83	19996.35
871.15	19883.14
871.469	19912.06
871.789	19986.41
872.109	19872.97
872.428	19750.03
872.748	19827.32
873.067	19741.9
873.386	19772.86
873.706	19708.22
874.025	19644.72
874.344	19535.57
874.663	19537.61
874.982	19519.76
875.301	19521.34
875.62	19487.89
875.939	19385.07
876.258	19351.85
876.577	19376.93
876.896	19360.89
877.214	19278.63
877.533	19404.5
877.852	19367.44
878.17	19226.66
878.489	19229.82
878.807	19144.85
879.125	19107.11
879.444	19131.97
879.762	19041.8
880.08	19034.57
880.398	18853.56
880.716	19001.35
881.034	18945.98
881.352	18993.44
881.67	18839.55
881.988	18808.36
882.306	18797.97
882.624	18779.21
882.941	18692.43
883.259	18573.11
883.577	18637.97
883.894	18525.43
884.212	18485.88
884.529	18565.88
884.846	18489.27
885.164	18348.94
885.481	18324.31
885.798	18283.18
886.115	18177.87
886.432	18180.13
886.75	18063.3
887.067	18200.47
887.383	18101.26
887.7	18043.64
888.017	17976.07
888.334	18078.44
888.651	17919.57
888.967	17912.11
889.284	17774.26
889.6	17782.85
889.917	17683.42
890.233	17644.55
890.55	17616.98
890.866	17621.5
891.182	17672.8
891.498	17512.12
891.815	17421.51
892.131	17253.37
892.447	17285.69
892.763	17320.26
893.079	17264
893.395	17130.44
893.71	17111.23
894.026	17106.03
894.342	16977.45
894.657	17036.66
894.973	16969.77
895.289	16854.97
895.604	16757.34
895.92	16712.15
896.235	16667.17
896.55	16769.09
896.865	16554.18
897.181	16493.62
897.496	16511.7
897.811	16416.79
898.126	16296.34
898.441	16263.12
898.756	16263.8
899.071	16067.42
899.386	16212.05
899.7	16001.43
900.015	15960.07
900.33	15813.64
900.644	15799.17
900.959	15871.94
901.273	15852.05
901.588	15774.54
901.902	15742.23
902.216	15616.81
902.531	15560.76
902.845	15469.92
903.159	15402.8
903.473	15399.86
903.787	15294.33
904.101	15243.03
904.415	15321
904.729	15206.87
905.042	15062.92
905.356	15071.28
905.67	15044.84
905.984	14966.2
906.297	14941.12
906.611	14823.83
906.924	14786.32
907.237	14740.67
907.551	14729.82
907.864	14565.08
908.177	14556.95
908.491	14518.76
908.804	14505.88
909.117	14419.78
909.43	14219.78
909.743	14264.3
910.056	14159.44
910.368	14248.71
910.681	14068.6
910.994	14036.51
911.307	13964.19
911.619	13763.97
911.932	13867.47
912.244	13662.73
912.557	13716.97
912.869	13742.51
913.181	13590.19
913.494	13597.88
913.806	13498.9
914.118	13370.31
914.43	13368.73
914.742	13253.25
915.054	13250.54
915.366	13166.7
915.678	13185.23
915.99	13086.48
916.302	13015.07
916.613	12968.06
916.925	13020.72
917.236	12867.5
917.548	12887.84
917.859	12894.62
918.171	12749.76
918.482	12708.86
918.794	12627.51
919.105	12615.3
919.416	12462.99
919.727	12527.4
920.038	12419.38
920.349	12399.04
920.66	12311.58
920.971	12305.93
921.282	12274.07
921.593	12141.87
921.903	12089.67
922.214	12168.76
922.525	11903.68
922.835	11940.07
923.146	11928.54
923.456	11809.68
923.767	11772.61
924.077	11723.8
924.387	11745.95
924.697	11645.39
925.008	11571.49
925.318	11564.94
925.628	11490.36
925.938	11421.44
926.248	11325.39
926.558	11284.49
926.867	11284.94
927.177	11276.36
927.487	11119.07
927.796	11110.71
928.106	11147.09
928.416	11069.81
928.725	10971.28
929.034	10986.42
929.344	10952.07
929.653	10891.51
929.962	10741.68
930.271	10809.25
930.581	10755.69
930.89	10653.32
931.199	10505.08
931.508	10555.92
931.817	10580.56
932.125	10550.95
932.434	10562.48
932.743	10355.02
933.051	10343.27
933.36	10367
933.669	10256.95
933.977	10236.38
934.286	10211.75
934.594	10109.83
934.902	10082.04
935.21	10030.97
935.519	9993.23
935.827	9981.93
936.135	9953.45
936.443	9813.8
936.751	9887.01
937.059	9776.96
937.367	9746.9
937.674	9722.5
937.982	9625.1
938.29	9611.54
938.597	9606.57
938.905	9534.48
939.213	9501.04
939.52	9430.3
939.827	9456.74
940.135	9423.75
940.442	9358.89
940.749	9318.89
941.056	9303.07
941.363	9230.31
941.67	9167.48
941.977	9131.1
942.284	9120.25
942.591	9074.83
942.898	9089.29
943.205	9016.3
943.511	8999.58
943.818	8956.42
944.125	8834.61
944.431	8824.67
944.738	8752.35
945.044	8739.93
945.35	8758.46
945.657	8692.92
945.963	8621.96
946.269	8560.27
946.575	8506.03
946.881	8530.44
947.187	8507.39
947.493	8412.93
947.799	8361.4
948.105	8339.94
948.41	8257.9
948.716	8335.42
949.022	8188.98
949.327	8243.44
949.633	8064.24
949.938	8057.23
950.244	8071.47
950.549	8045.48
950.854	8030.57
951.16	7982.66
951.465	7913.73
951.77	7862.66
952.075	7873.06
952.38	7812.94
952.685	7853.85
952.99	7757.8
953.294	7715.32
953.599	7652.95
953.904	7596.68
954.209	7601.2
954.513	7598.94
954.818	7541.76
955.122	7562.78
955.426	7525.49
955.731	7430.36
956.035	7433.52
956.339	7363.92
956.643	7343.35
956.948	7327.08
957.252	7304.48
957.556	7287.53
957.86	7271.49
958.163	7234.88
958.467	7190.59
958.771	7158.5
959.075	7137.03
959.378	7057.26
959.682	7088.67
959.985	7057.48
960.289	6977.26
960.592	6936.58
960.896	6904.49
961.199	6823.14
961.502	6885.96
961.805	6812.52
962.108	6780.2
962.411	6732.29
962.714	6695.46
963.017	6733.2
963.32	6760.32
963.623	6664.95
963.926	6587.67
964.228	6565.97
964.531	6548.57
964.833	6579.76
965.136	6458.86
965.438	6458.18
965.741	6420.89
966.043	6438.74
966.345	6390.61
966.648	6347.45
966.95	6323.49
967.252	6274.45
967.554	6255.02
967.856	6216.83
968.158	6144.51
968.46	6168.24
968.761	6174.34
969.063	6104.74
969.365	6128.69
969.666	6057.74
969.968	6031.52
970.269	5972.54
970.571	5998.53
970.872	5956.04
971.174	5907.46
971.475	5912.88
971.776	5845.31
972.077	5844.86
972.378	5859.55
972.679	5775.94
972.98	5775.03
973.281	5742.49
973.582	5707.91
973.883	5634.7
974.183	5643.51
974.484	5637.41
974.785	5568.03
975.085	5551.53
975.386	5566.45
975.686	5509.5
975.986	5500.69
976.287	5517.19
976.587	5447.13
976.887	5407.13
977.187	5362.16
977.487	5344.99
977.787	5320.13
978.087	5341.14
978.387	5285.78
978.687	5321.26
978.987	5192.67
979.286	5240.36
979.586	5260.7
979.885	5216.18
980.185	5133.24
980.484	5122.39
980.784	5080.13
981.083	5087.37
981.382	5091.66
981.682	5000.81
981.981	4999.23
982.28	4996.75
982.579	4969.18
982.878	4995.17
983.177	4893.02
983.475	4920.59
983.774	4802.18
984.073	4848.28
984.372	4801.05
984.67	4821.38
984.969	4784.55
985.267	4743.65
985.566	4779.35
985.864	4707.04
986.162	4709.98
986.461	4683.31
986.759	4615.97
987.057	4561.73
987.355	4630.43
987.653	4605.35
987.951	4600.6
988.249	4554.72
988.547	4532.8
988.844	4504.33
989.142	4460.94
989.44	4447.38
989.737	4406.93
990.035	4367.61
990.332	4381.85
990.63	4362.87
990.927	4318.8
991.224	4353.6
991.521	4278.8
991.819	4292.36
992.116	4246.26
992.413	4233.83
992.71	4195.86
993.006	4162.87
993.303	4220.72
993.6	4183.44
993.897	4135.07
994.193	4133.49
994.49	4136.88
994.787	4066.15
995.083	4033.61
995.379	4004.91
995.676	4016.89
995.972	3994.51
996.268	3931.01
996.565	3921.07
996.861	3892.82
997.157	3906.15
997.453	3869.32
997.749	3855.08
998.044	3821.41
998.34	3870
998.636	3775.99
998.932	3774.18
999.227	3753.84
999.523	3766.5
999.818	3705.26
1000.114	3705.03
1000.409	3658.03
1000.704	3657.35
1001	3667.29
1001.295	3607.86
1001.59	3602.21
1001.885	3582.32
1002.18	3508.65
1002.475	3520.63
1002.77	3524.7
1003.065	3522.66
1003.359	3489.67
1003.654	3448.54
1003.949	3470.91
1004.243	3395.43
1004.538	3354.76
1004.832	3366.06
1005.127	3367.64
1005.421	3353.4
1005.715	3287.64
1006.009	3285.38
1006.304	3255.78
1006.598	3218.49
1006.892	3218.94
1007.186	3215.33
1007.48	3166.74
1007.773	3147.53
1008.067	3147.53
1008.361	3155.21
1008.655	3136.01
1008.948	3079.06
1009.242	3072.73
1009.535	3035.44
1009.829	3056.01
1010.122	2993.18
1010.415	3009.91
1010.708	2960.19
1011.001	2971.94
1011.295	2947.31
1011.588	2945.28
1011.881	2892.17
1012.173	2875.22
1012.466	2874.54
1012.759	2849.23
1013.052	2823.92
1013.344	2827.99
1013.637	2810.14
1013.93	2760.87
1014.222	2770.14
1014.514	2745.73
1014.807	2747.31
1015.099	2699.86
1015.391	2666.41
1015.683	2673.64
1015.976	2657.83
1016.268	2668.9
1016.56	2620.99
1016.851	2596.36
1017.143	2610.6
1017.435	2559.52
1017.727	2529.02
1018.018	2514.33
1018.31	2525.4
1018.602	2545.29
1018.893	2483.37
1019.185	2480.88
1019.476	2443.59
1019.767	2428.91
1020.058	2402.01
1020.35	2387.55
1020.641	2390.94
1020.932	2388
1021.223	2368.79
1021.514	2321.56
1021.804	2290.38
1022.095	2281.11
1022.386	2298.74
1022.677	2251.51
1022.967	2228.46
1023.258	2266.2
1023.548	2177.16
1023.839	2214.67
1024.129	2208.8
1024.419	2192.98
1024.709	2157.05
1025	2141.45
1025.29	2128.57
1025.58	2099.65
1025.87	2074.11
1026.16	2055.81
1026.449	2057.16
1026.739	2063.72
1027.029	2046.99
1027.319	2030.72
1027.608	2021.46
1027.898	1956.38
1028.187	1994.11
1028.477	1962.02
1028.766	1947.79
1029.055	1919.99
1029.344	1912.08
1029.634	1928.58
1029.923	1899.88
1030.212	1868.24
1030.501	1859.88
1030.79	1846.32
1031.078	1821.24
1031.367	1809.71
1031.656	1793.67
1031.945	1829.15
1032.233	1783.5
1032.522	1781.69
1032.81	1747.34
1033.099	1740.11
1033.387	1728.13
1033.675	1715.03
1033.963	1710.96
1034.251	1701.47
1034.54	1660.11
1034.828	1681.13
1035.116	1638.42
1035.403	1646.55
1035.691	1638.19
1035.979	1634.58
1036.267	1594.8
1036.554	1571.98
1036.842	1594.58
1037.129	1570.85
1037.417	1583.28
1037.704	1550.74
1037.992	1546.44
1038.279	1545.99
1038.566	1515.48
1038.853	1515.48
1039.14	1515.48
