Data from 7548_FLMS001491_010.txt Node
Date: Thu Apr 12 17:06:38 BST 2018
User: hsy
Spectrometer: FLMS00149
Trigger mode: 0
Integration Time (sec): 1.000000E-2
Scans to average: 10
Electric dark correction enabled: true
Nonlinearity correction enabled: false
Boxcar width: 0
XAxis mode: Wavelengths
Number of Pixels in Spectrum: 2048
>>>>>Begin Spectral Data<<<<<
341.393	-25.68
341.776	-25.68
342.16	-25.68
342.543	-54.38
342.927	-57.54
343.31	-80.37
343.693	-63.42
344.077	-68.84
344.46	-71.33
344.843	-37.2
345.226	-46.24
345.61	-39.01
345.993	-28.16
346.376	23.81
346.759	18.62
347.142	24.49
347.525	55
347.908	46.86
348.291	75.56
348.674	81.89
349.057	108.33
349.44	111.04
349.823	134.32
350.206	202.57
350.588	232.4
350.971	266.29
351.354	275.11
351.737	294.31
352.119	287.31
352.502	295.9
352.884	332.05
353.267	319.4
353.65	355.56
354.032	369.79
354.414	344.26
354.797	357.82
355.179	372.05
355.562	391.94
355.944	371.83
356.326	376.57
356.709	386.74
357.091	405.5
357.473	407.08
357.855	391.03
358.238	392.16
358.62	392.84
359.002	391.94
359.384	393.97
359.766	390.58
360.148	395.33
360.53	408.66
360.912	418.83
361.294	395.55
361.676	408.44
362.057	393.07
362.439	400.98
362.821	384.03
363.203	398.49
363.584	395.33
363.966	363.47
364.348	393.07
364.729	392.62
365.111	392.84
365.493	376.12
365.874	378.38
366.256	373.86
366.637	375.67
367.019	383.8
367.4	384.93
367.781	364.59
368.163	388.55
368.544	389.68
368.925	387.87
369.306	396.91
369.688	382.9
370.069	385.16
370.45	358.27
370.831	377.25
371.212	385.84
371.593	397.14
371.974	391.49
372.355	377.93
372.736	411.6
373.117	381.32
373.498	408.89
373.879	380.64
374.26	390.58
374.641	380.41
375.021	390.81
375.402	410.7
375.783	411.37
376.163	420.41
376.544	393.75
376.925	408.21
377.305	407.76
377.686	406.4
378.066	411.6
378.447	421.99
378.827	417.25
379.208	429
379.588	425.38
379.968	421.99
380.349	427.64
380.729	421.77
381.109	449.56
381.489	427.64
381.87	445.27
382.25	433.52
382.63	441.66
383.01	431.03
383.39	453.86
383.77	458.38
384.15	452.5
384.53	430.36
384.91	447.98
385.29	457.7
385.67	439.62
386.049	441.43
386.429	454.76
386.809	452.95
387.189	474.42
387.568	469.22
387.948	456.12
388.328	485.95
388.707	482.11
389.087	461.32
389.466	479.39
389.846	487.98
390.225	492.05
390.605	504.93
390.984	501.09
391.363	484.14
391.743	495.66
392.122	490.24
392.501	509
392.881	533.63
393.26	507.87
393.639	531.14
394.018	537.47
394.397	519.39
394.776	517.59
395.155	521.65
395.534	544.03
395.913	534.53
396.292	533.18
396.671	549.67
397.05	536.57
397.429	547.87
397.808	563.23
398.186	545.83
398.565	567.53
398.944	562.78
399.323	562.1
399.701	568.21
400.08	563.23
400.458	568.88
400.837	561.2
401.215	586.51
401.594	542.67
401.972	573.85
402.351	570.01
402.729	582.67
403.107	583.8
403.486	575.21
403.864	585.83
404.242	611.14
404.62	618.37
404.999	635.55
405.377	626.51
405.755	640.52
406.133	656.11
406.511	651.82
406.889	640.52
407.267	665.6
407.645	646.62
408.023	666.73
408.401	653.85
408.779	663.8
409.156	665.38
409.534	659.95
409.912	678.71
410.29	690.46
410.667	728.2
411.045	734.08
411.422	699.95
411.8	717.81
412.178	728.88
412.555	721.87
412.933	760.74
413.31	756.9
413.687	747.41
414.065	745.6
414.442	772.95
414.819	759.61
415.197	781.31
415.574	811.59
415.951	794.64
416.328	791.25
416.705	797.13
417.082	812.94
417.46	829.67
417.837	807.75
418.214	810.68
418.591	865.15
418.967	847.29
419.344	846.62
419.721	838.25
420.098	861.76
420.475	855.2
420.852	874.19
421.228	870.34
421.605	875.32
421.982	862.89
422.358	857.46
422.735	886.39
423.111	884.81
423.488	914.64
423.864	880.51
424.241	913.96
424.617	933.17
424.994	932.26
425.37	933.85
425.746	948.53
426.123	964.13
426.499	973.39
426.875	956.9
427.251	1011.13
427.627	997.57
428.003	1018.82
428.379	1019.49
428.756	1023.56
429.132	1053.62
429.507	1042.54
429.883	1068.08
430.259	1074.63
430.635	1045.93
431.011	1102.88
431.387	1121.86
431.763	1121.86
432.138	1115.31
432.514	1128.19
432.89	1124.35
433.265	1158.47
433.641	1152.82
434.016	1165.93
434.392	1199.15
434.767	1185.59
435.143	1196.89
435.518	1205.7
435.894	1231.69
436.269	1241.41
436.644	1239.37
437.02	1265.14
437.395	1276.21
437.77	1286.15
438.145	1282.31
438.52	1334.74
438.895	1310.78
439.271	1296.1
439.646	1336.09
440.021	1372.03
440.395	1367.28
440.77	1336.77
441.145	1359.15
441.52	1359.6
441.895	1361.86
442.27	1400.5
442.645	1378.35
443.019	1410.67
443.394	1389.43
443.769	1431.01
444.143	1451.57
444.518	1415.64
444.892	1417.9
445.267	1440.72
445.641	1469.2
446.016	1475.3
446.39	1459.26
446.764	1484.79
447.139	1506.94
447.513	1473.04
447.887	1502.19
448.262	1508.29
448.636	1508.29
449.01	1522.3
449.384	1538.12
449.758	1551.91
450.132	1545.35
450.506	1591.91
450.88	1593.72
451.254	1585.81
451.628	1606.82
452.002	1637.1
452.376	1645.69
452.75	1668.97
453.123	1662.64
453.497	1699.7
453.871	1693.15
454.244	1747.16
454.618	1754.39
454.992	1774.05
455.365	1819.92
455.739	1798.91
456.112	1812.47
456.486	1831.22
456.859	1847.95
457.232	1913.71
457.606	1879.13
457.979	1955.74
458.352	1954.16
458.725	1991.22
459.099	2005.46
459.472	2032.57
459.845	2040.03
460.218	2089.75
460.591	2095.85
460.964	2094.49
461.337	2142.4
461.71	2197.09
462.083	2191.21
462.456	2258.78
462.829	2216.3
463.201	2259.69
463.574	2265.11
463.947	2312.79
464.32	2344.2
464.692	2344.2
465.065	2380.14
465.438	2410.64
465.81	2439.12
466.183	2449.74
466.555	2520.7
466.928	2533.58
467.3	2529.51
467.672	2572.22
468.045	2604.99
468.417	2607.02
468.789	2650.64
469.161	2678.88
469.534	2708.26
469.906	2767.24
470.278	2792.1
470.65	2829.39
471.022	2886.79
471.394	2900.35
471.766	2911.42
472.138	2983.06
472.51	3018.54
472.882	3080.46
473.253	3088.14
473.625	3155.48
473.997	3173.56
474.369	3221.47
474.74	3285.87
475.112	3320
475.484	3360.9
475.855	3432.99
476.227	3456.94
476.598	3579.2
476.97	3587.79
477.341	3721.57
477.713	3725.41
478.084	3735.35
478.455	3891.06
478.827	3890.83
479.198	3975.57
479.569	3996.82
479.94	4133.76
480.311	4193.19
480.682	4278.39
481.053	4414.66
481.424	4459.18
481.795	4535.33
482.166	4582.34
482.537	4675.89
482.908	4805.83
483.279	4825.49
483.65	4992.04
484.021	5071.59
484.391	5112.04
484.762	5201.08
485.133	5265.48
485.503	5420.51
485.874	5537.11
486.244	5619.82
486.615	5747.5
486.985	5825.69
487.356	5980.49
487.726	6047.16
488.097	6276.08
488.467	6295.96
488.837	6500.48
489.207	6576.18
489.578	6747.93
489.948	6855.05
490.318	6991.77
490.688	7077.41
491.058	7224.3
491.428	7435.6
491.798	7506.78
492.168	7737.06
492.538	7918.75
492.908	8021.12
493.278	8190.38
493.648	8307.21
494.017	8508.34
494.387	8699.29
494.757	8792.17
495.126	8964.37
495.496	9157.13
495.866	9337.01
496.235	9525.26
496.605	9744.24
496.974	9875.31
497.344	9999.6
497.713	10226.48
498.082	10463.09
498.452	10606.81
498.821	10819.91
499.19	10949.18
499.559	11187.81
499.928	11458.99
500.298	11626.45
500.667	11821.02
501.036	12008.58
501.405	12245.41
501.774	12392.98
502.143	12611.5
502.512	12868.67
502.88	13158.38
503.249	13318.38
503.618	13539.39
503.987	13748.42
504.356	13962.88
504.724	14199.71
505.093	14407.62
505.462	14651
505.83	14822.97
506.199	15137.77
506.567	15371.88
506.936	15544.31
507.304	15912.89
507.672	16109.04
508.041	16349.71
508.409	16636.03
508.777	16763.26
509.145	17114.89
509.514	17195.56
509.882	17522.79
510.25	17693.4
510.618	17919.84
510.986	18141.08
511.354	18438.7
511.722	18675.53
512.09	18983.09
512.458	19099.92
512.826	19359.8
513.193	19707.59
513.561	19756.85
513.929	20042.27
514.297	20350.28
514.664	20621.24
515.032	20758.18
515.4	21005.86
515.767	21199.75
516.135	21452.4
516.502	21389.13
516.869	21826.86
517.237	22020.97
517.604	22002.9
517.972	22486.27
518.339	22599.04
518.706	22896.66
519.073	23003.55
519.44	23173.94
519.808	23648.05
520.175	23614.61
520.542	24067.47
520.909	24269.05
521.276	24386.11
521.643	24689.15
522.009	24870.62
522.376	25140.89
522.743	25361.68
523.11	25692.29
523.477	26015.22
523.843	26188.1
524.21	26495.89
524.577	26707.41
524.943	26904.24
525.31	27115.53
525.676	27404.34
526.043	27530.43
526.409	27813.36
526.776	28189.63
527.142	28326.12
527.508	28597.98
527.874	28815.15
528.241	29035.48
528.607	29160.22
528.973	29593.66
529.339	29550.72
529.705	30059.41
530.071	30302.34
530.437	30593.86
530.803	30659.39
531.169	30817.13
531.535	30948.42
531.901	31165.82
532.267	31213.5
532.632	31469.99
532.998	31684.22
533.364	31889.19
533.73	32090.31
534.095	32301.16
534.461	32454.6
534.826	32681.71
535.192	32833.57
535.557	33097.29
535.923	32985.21
536.288	33333.9
536.653	33422.26
537.019	33413.9
537.384	33639.2
537.749	33797.61
538.114	33867.89
538.479	33949.25
538.845	34167.77
539.21	34177.04
539.575	34416.81
539.94	34692.51
540.305	34734.76
540.67	34802.11
541.034	34982.44
541.399	35019.05
541.764	35280.06
542.129	35304.69
542.494	35332.72
542.858	35706.72
543.223	35545.59
543.587	35809.99
543.952	35801.63
544.316	35908.97
544.681	36035.52
545.045	36221.51
545.41	36401.39
545.774	36443.42
546.138	36350.77
546.503	36733.81
546.867	36656.07
547.231	37019.9
547.595	37038.66
547.959	37171.76
548.324	37250.86
548.688	37300.8
549.052	37613.56
549.416	37568.14
549.779	37627.57
550.143	37822.14
550.507	37998.86
550.871	38035.92
551.235	38179.19
551.599	38328.79
551.962	38510.03
552.326	38590.93
552.689	38642.01
553.053	38613.08
553.417	38753.42
553.78	39246.96
554.143	39154.54
554.507	39342.78
554.87	39466.62
555.234	39922.2
555.597	39651.02
555.96	39874.97
556.323	40038.13
556.686	40189.54
557.05	40441.96
557.413	40628.85
557.776	40690.77
558.139	40917.43
558.502	41062.28
558.865	41091.89
559.228	41504.76
559.59	41493.91
559.953	41662.49
560.316	42313.77
560.679	42101.35
561.041	42312.42
561.404	42552.19
561.767	42783.14
562.129	42614.78
562.492	43143.13
562.854	43059.07
563.217	43196.69
563.579	43428.77
563.941	43688.88
564.304	43746.28
564.666	44225.36
565.028	44334.74
565.39	44354.4
565.753	44620.61
566.115	44633.26
566.477	44918
566.839	45190.31
567.201	45560.47
567.563	45443.18
567.925	45807.24
568.287	45817.86
568.648	46008.14
569.01	46283.39
569.372	46585.07
569.734	46483.83
570.095	46840.66
570.457	46962.47
570.819	46995.01
571.18	46991.39
571.542	47406.97
571.903	47413.08
572.265	47720.19
572.626	47851.93
572.987	47949.33
573.349	48190.91
573.71	48334.63
574.071	48478.36
574.432	48681.97
574.794	48904.11
575.155	48916.31
575.516	48932.81
575.877	49246.47
576.238	49239.02
576.599	49577.76
576.96	49643.98
577.32	49556.75
577.681	49687.82
578.042	50120.57
578.403	50142.72
578.763	50158.99
579.124	50256.39
579.485	50571.86
579.845	50663.39
580.206	50691.18
580.566	50804.17
580.927	50903.15
581.287	51124.16
581.648	51031.74
582.008	51299.53
582.368	51376.36
582.728	51457.49
583.089	51537.94
583.449	51595.79
583.809	51756.92
584.169	51923.01
584.529	51903.13
584.889	52266.73
585.249	52099.73
585.609	52087.75
585.969	52348.54
586.329	52356.67
586.688	52562.32
587.048	52565.03
587.408	52752.14
587.768	52793.95
588.127	52860.39
588.487	52995.53
588.846	53242.98
589.206	53112.59
589.565	53210.44
589.925	53585.79
590.284	53550.09
590.643	53615.62
591.003	53791.21
591.362	54095.39
591.721	54013.13
592.08	54148.49
592.44	54382.16
592.799	54372.21
593.158	54497.86
593.517	54489.95
593.876	54666.9
594.235	54663.96
594.593	54809.72
594.952	54906.44
595.311	55035.7
595.67	55189.14
596.029	55395.24
596.387	55473.43
596.746	55637.94
597.104	55537.83
597.463	55630.71
597.822	55827.32
598.18	55735.34
598.538	55954.32
598.897	56213.3
599.255	56091.72
599.613	56505.27
599.972	56297.81
600.33	56495.32
600.688	56519.73
601.046	56685.37
601.404	56930.11
601.762	56861.19
602.12	56990.68
602.478	57078.36
602.836	57164.01
603.194	57003.78
603.552	57226.6
603.91	57232.93
604.268	57369.88
604.625	57476.31
604.983	57584.11
605.341	57503.88
605.698	57733.93
606.056	57925.12
606.413	57827.49
606.771	58024.1
607.128	58080.37
607.485	58084.66
607.843	58139.8
608.2	58268.61
608.557	58443.52
608.914	58378.66
609.272	58606.23
609.629	58733
609.986	58779.56
610.343	58807.8
610.7	58987.23
611.057	58998.08
611.414	59008.02
611.771	59095.03
612.127	59177.96
612.484	59219.77
612.841	59279.66
613.198	59336.83
613.554	59360.56
613.911	59537.5
614.267	59610.04
614.624	59571.17
614.98	59752.19
615.337	59903.37
615.693	59887.1
616.05	59883.26
616.406	60042.12
616.762	60041.44
617.118	60106.75
617.475	60069.92
617.831	60217.94
618.187	60266.3
618.543	60283.25
618.899	60462.68
619.255	60419.51
619.611	60454.99
619.967	60543.35
620.323	60662.44
620.678	60525.5
621.034	60618.6
621.39	60602.79
621.746	60628.1
622.101	60930.46
622.457	60643.69
622.812	60826.73
623.168	60918.03
623.523	60907.18
623.879	61050.91
624.234	60879.61
624.589	60977.01
624.945	61024.92
625.3	61025.82
625.655	61093.17
626.01	61094.75
626.365	61067.18
626.72	61027.18
627.075	61047.75
627.43	61066.73
627.785	61076.44
628.14	61115.31
628.495	61178.82
628.85	61193.05
629.205	61083
629.559	61153.96
629.914	61122.32
630.269	61085.03
630.623	61018.14
630.978	60987.41
631.332	61153.51
631.687	61094.3
632.041	61064.47
632.396	61085.48
632.75	60993.74
633.104	61100.85
633.459	60979.5
633.813	60960.29
634.167	60951.7
634.521	61004.36
634.875	60944.7
635.229	60937.47
635.583	60838.49
635.937	60858.15
636.291	60866.51
636.645	60871.03
636.999	60803.46
637.352	60847.52
637.706	60680.98
638.06	60793.97
638.413	60715.78
638.767	60656.57
639.121	60756
639.474	60559.4
639.828	60610.47
640.181	60596.91
640.534	60648.89
640.888	60577.93
641.241	60433.75
641.594	60468.78
641.947	60536.12
642.301	60371.15
642.654	60436.46
643.007	60377.25
643.36	60447.53
643.713	60356.46
644.066	60425.84
644.419	60295.67
644.771	60091.39
645.124	59790.83
645.477	59819.53
645.83	59669.7
646.182	59668.57
646.535	59570.72
646.888	59667.89
647.24	59582.47
647.593	59724.84
647.945	59563.04
648.298	59535.02
648.65	59380.9
649.002	59275.59
649.355	59278.98
649.707	59187.68
650.059	59214.35
650.411	59601.68
650.763	59657.27
651.115	60014.1
651.467	59810.26
651.819	59857.49
652.171	59744.28
652.523	59747.67
652.875	59769.13
653.227	59585.86
653.578	59837.38
653.93	59729.14
654.282	59625.18
654.633	59597.84
654.985	59670.38
655.337	59577.95
655.688	59585.18
656.039	59621.79
656.391	59452.31
656.742	59491.18
657.094	59467
657.445	59516.71
657.796	59481.91
658.147	59466.32
658.498	59464.06
658.849	59503.6
659.2	59425.41
659.551	59371.86
659.902	59546.77
660.253	59308.81
660.604	59383.83
660.955	59291.63
661.306	59455.7
661.656	59267.23
662.007	59314.91
662.358	59309.49
662.708	59311.75
663.059	59250.05
663.409	59124.18
663.76	59271.75
664.11	59265.19
664.461	59312.2
664.811	59260
665.161	59346.77
665.511	59223.39
665.862	59184.52
666.212	59231.97
666.562	59246.66
666.912	59201.24
667.262	59118.3
667.612	59138.87
667.962	59202.37
668.312	59088.25
668.662	59262.71
669.011	59182.03
669.361	59131.41
669.711	59167.34
670.06	59076.05
670.41	59022.26
670.76	58985.65
671.109	59137.29
671.459	59022.26
671.808	59081.47
672.157	59093.45
672.507	58977.74
672.856	58978.87
673.205	59009.61
673.554	59036.5
673.904	58985.88
674.253	59191.3
674.602	59031.98
674.951	58711.76
675.3	58511.99
675.649	59065.65
675.998	58991.08
676.346	59002.6
676.695	59043.73
677.044	58882.6
677.393	58951.53
677.741	58987.91
678.09	58882.6
678.438	58835.37
678.787	58954.92
679.135	58920.34
679.484	58733.23
679.832	58842.61
680.181	58750.18
680.529	58782.95
680.877	58732.1
681.225	58654.14
681.573	58843.28
681.922	58688.94
682.27	58575.95
682.618	58571.65
682.966	58580.92
683.314	58587.47
683.661	58530.3
684.009	58500.24
684.357	58372.79
684.705	58340.92
685.053	58387.93
685.4	58374.14
685.748	58326.91
686.095	58288.95
686.443	58140.25
686.79	58239.46
687.138	58195.39
687.485	58174.83
687.832	58125.56
688.18	58119.46
688.527	58005.79
688.874	57948.39
689.221	57994.49
689.568	57868.85
689.915	57900.71
690.262	57879.92
690.609	57773.25
690.956	57676.31
691.303	57683.99
691.65	57583.2
691.997	57593.37
692.344	57517.89
692.69	57422.3
693.037	57415.3
693.383	57198.81
693.73	57291.46
694.077	57181.41
694.423	57167.85
694.769	57067.28
695.116	57077
695.462	56930.34
695.808	56908.19
696.155	56993.61
696.501	56751.81
696.847	56861.41
697.193	56613.96
697.539	56651.25
697.885	56524.7
698.231	56443.8
698.577	56474.08
698.923	56445.15
699.269	56253.52
699.614	56179.85
699.96	56083.13
700.306	56083.81
700.651	56002
700.997	55964.94
701.342	55868.45
701.688	55899.18
702.033	55754.55
702.379	55777.83
702.724	55718.17
703.069	55737.83
703.415	55406.31
703.76	55393.88
704.105	55399.08
704.45	55348.23
704.795	55222.81
705.14	55178.75
705.485	55126.54
705.83	55000.22
706.175	55111.18
706.52	55047
706.865	54902.82
707.209	54801.13
707.554	54817.85
707.899	54734.46
708.243	54597.52
708.588	54586.22
708.932	54402.27
709.277	54525.2
709.621	54393.23
709.966	54167.7
710.31	54249.96
710.654	54170.64
710.998	54162.05
711.342	54088.15
711.687	53977.42
712.031	53923.64
712.375	53795.73
712.719	53756.41
713.063	53689.97
713.407	53826.01
713.75	53692.68
714.094	53644.1
714.438	53439.58
714.782	53443.88
715.125	53282.53
715.469	53566.59
715.812	53181.06
716.156	53113.72
716.499	53235.97
716.843	53144.68
717.186	52981.52
717.53	53140.16
717.873	53076.43
718.216	52949.65
718.559	52866.94
718.902	52615.42
719.246	52690.68
719.589	52683.9
719.932	52443.68
720.275	52511.02
720.617	52539.49
720.96	52418.37
721.303	52469.89
721.646	52544.69
721.989	52201.42
722.331	52344.02
722.674	52207.75
723.016	52270.12
723.359	52082.33
723.701	52123.46
724.044	51913.3
724.386	51755.11
724.729	51971.6
725.071	51919.4
725.413	51902.22
725.755	51868.1
726.097	51713.98
726.439	51572.74
726.782	51526.64
727.124	51760.76
727.465	51444.38
727.807	51446.42
728.149	51464.04
728.491	51326.87
728.833	51470.6
729.175	51350.15
729.516	51192.64
729.858	51207.78
730.199	51286.42
730.541	51195.35
730.882	51078.74
731.224	51066.31
731.565	50934.79
731.906	51093.2
732.248	51050.27
732.589	50802.36
732.93	50790.61
733.271	50833.78
733.612	50785.64
733.953	50883.49
734.294	50714.23
734.635	50457.52
734.976	50657.06
735.317	50438.53
735.658	50496.38
735.999	50351.08
736.339	50400.57
736.68	50469.49
737.021	50187.47
737.361	50226.11
737.702	50378.2
738.042	50223.17
738.383	50274.92
738.723	50315.82
739.063	50011.43
739.404	50189.27
739.744	49989.73
740.084	50017.53
740.424	49912.44
740.764	49913.12
741.104	49958.32
741.444	49795.84
741.784	49796.74
742.124	49812.33
742.464	49730.98
742.804	49587.71
743.143	49617.99
743.483	49682.62
743.823	49443.98
744.162	49463.19
744.502	49581.38
744.841	49334.15
745.181	49461.16
745.52	49203.99
745.86	49293.48
746.199	49354.49
746.538	49211.9
746.877	49346.58
747.216	49297.32
747.556	49022.98
747.895	49044.22
748.234	48999.47
748.573	48932.81
748.911	48789.99
749.25	48804.23
749.589	48636.32
749.928	48712.93
750.267	48765.81
750.605	48489.43
750.944	48541.41
751.283	48418.47
751.621	48592.71
751.96	48197.91
752.298	48346.61
752.636	48269.55
752.975	48211.02
753.313	47987.3
753.651	48254.41
753.989	47981.65
754.327	47982.1
754.666	47705.5
755.004	47663.69
755.342	47674.09
755.679	47591.38
756.017	47371.49
756.355	47487.2
756.693	47209.46
757.031	47307.99
757.368	47151.84
757.706	47060.32
758.044	46778.29
758.381	46975.12
758.719	46817.38
759.056	46867.1
759.394	46594.34
759.731	46301.01
760.068	46296.95
760.405	46349.83
760.743	46172.2
761.08	46151.19
761.417	45889.05
761.754	45898.54
762.091	45826.22
762.428	45502.17
762.765	45496.29
763.102	45449.74
763.438	45368.38
763.775	45106.24
764.112	44931.11
764.449	44925.01
764.785	44830.77
765.122	44535.64
765.458	44419.03
765.795	44392.36
766.131	44376.32
766.467	44237.57
766.804	43961.87
767.14	43826.73
767.476	43835.32
767.812	43686.39
768.148	43655.66
768.485	43517.13
768.821	43165.96
769.157	43150.59
769.492	42955.11
769.828	42888.22
770.164	42713.31
770.5	42328.24
770.836	42584.95
771.171	42402.81
771.507	42203.72
771.842	41899.77
772.178	41903.62
772.513	41790.4
772.849	41477.86
773.184	41570.74
773.519	41308.83
773.855	41081.49
774.19	41102.73
774.525	40997.65
774.86	40804.66
775.195	40693.7
775.53	40528.28
775.865	40244.68
776.2	40054.17
776.535	39865.7
776.87	39883.33
777.205	39675.88
777.539	39576.45
777.874	39541.87
778.209	39145.04
778.543	39192.5
778.878	39118.6
779.212	38931.26
779.547	38628.67
779.881	38648.56
780.215	38262.13
780.55	38442.46
780.884	38177.61
781.218	37999.76
781.552	37996.83
781.886	37924.06
782.22	37614.91
782.554	37571.75
782.888	37202.72
783.222	37328.14
783.556	36872.56
783.889	36937.64
784.223	36702.4
784.557	36474.83
784.89	36718.89
785.224	36246.82
785.557	36210.66
785.891	36103.54
786.224	36146.48
786.558	35867.84
786.891	35774.96
787.224	35589.43
787.557	35442.77
787.891	35328.2
788.224	35239.16
788.557	35061.76
788.89	35129.33
789.223	35027.64
789.556	34786.97
789.888	34710.13
790.221	34515.11
790.554	34431.72
790.887	34323.02
791.219	34190.82
791.552	34032.64
791.884	33824.96
792.217	33805.07
792.549	33627.45
792.882	33360.11
793.214	33373.67
793.546	33377.96
793.879	33190.17
794.211	32907.92
794.543	33059.55
794.875	32968.71
795.207	32910.86
795.539	32764.65
795.871	32737.08
796.203	32658.89
796.535	32267.94
796.867	32401.72
797.198	32138.45
797.53	32177.54
797.862	31888.74
798.193	31886.7
798.525	31705.92
798.856	31855.29
799.188	31314.74
799.519	31336.66
799.85	31249.43
800.182	31263.9
800.513	31182.54
800.844	30846.05
801.175	31097.35
801.506	30924.02
801.837	30747.3
802.168	30675.66
802.499	30770.8
802.83	30480.19
803.161	30268.22
803.491	30340.98
803.822	30472.73
804.153	30082.23
804.483	29949.58
804.814	29840.43
805.145	29951.61
805.475	29800.21
805.805	29742.13
806.136	29789.36
806.466	29677.5
806.796	29547.56
807.126	29283.83
807.457	29291.07
807.787	29381.69
808.117	29235.47
808.447	29222.37
808.777	29147.11
809.107	28975.14
809.436	28849.72
809.766	28766.11
810.096	28822.6
810.426	28590.07
810.755	28731.76
811.085	28532.67
811.414	28611.31
811.744	28386.46
812.073	28463.74
812.403	28281.6
812.732	28120.93
813.061	28247.93
813.39	27963.87
813.719	27961.84
814.049	28138.55
814.378	27890.42
814.707	27719.36
815.036	27801.61
815.365	27689.07
815.693	27533.6
816.022	27453.6
816.351	27381.74
816.68	27308.29
817.008	27369.99
817.337	27102.2
817.665	27137.45
817.994	27134.51
818.322	27233.72
818.651	26949.66
818.979	26924.8
819.307	26999.15
819.636	26897.46
819.964	26708.99
820.292	26823.79
820.62	26664.47
820.948	26792.83
821.276	26864.69
821.604	26733.85
821.932	26895.2
822.259	26746.5
822.587	26744.69
822.915	26651.36
823.243	26654.53
823.57	26504.92
823.898	26772.71
824.225	26667.18
824.553	26675.99
824.88	26582.66
825.207	26696.11
825.535	26577.69
825.862	26724.81
826.189	26596.22
826.516	26779.27
826.843	26745.6
827.17	26729.33
827.497	26747.18
827.824	26755.99
828.151	26892.03
828.478	26693.17
828.805	26915.54
829.131	26791.24
829.458	26676.9
829.785	26434.87
830.111	26602.78
830.438	26844.58
830.764	26663.34
831.09	26803.9
831.417	26621.53
831.743	26620.85
832.069	26685.94
832.395	26621.53
832.722	26695.43
833.048	26611.81
833.374	26627.86
833.7	26521.65
834.026	26445.27
834.351	26540.4
834.677	26485.94
835.003	26508.09
835.329	26570.91
835.654	26562.55
835.98	26242.78
836.306	26577.24
836.631	26417.24
836.956	26531.82
837.282	26479.16
837.607	26320.52
837.932	26190.58
838.258	26163.69
838.583	26176.57
838.908	26009.12
839.233	26186.29
839.558	25922.34
839.883	25974.77
840.208	25834.66
840.533	25887.54
840.858	25806.41
841.182	25814.55
841.507	25753.53
841.832	25695
842.156	25629.47
842.481	25664.49
842.805	25520.32
843.13	25375.46
843.454	25491.62
843.778	25460.21
844.103	25274.9
844.427	25344.28
844.751	25299.08
845.075	25174.34
845.399	25124.62
845.723	25067.9
846.047	25109.48
846.371	24880.56
846.695	24677.85
847.019	24657.29
847.343	24498.2
847.666	24445.77
847.99	24281.03
848.313	24259.33
848.637	24222.27
848.96	24212.78
849.284	24126.91
849.607	23875.84
849.931	23914.03
850.254	23693.25
850.577	23531.67
850.9	23389.98
851.223	23603.08
851.546	23274.73
851.869	23155.18
852.192	23388.4
852.515	23026.6
852.838	22874.06
853.161	22918.8
853.483	22773.95
853.806	22741.41
854.129	22683.78
854.451	22665.93
854.774	22432.04
855.096	22453.28
855.419	22310.01
855.741	22294.64
856.063	22152.04
856.385	22094.19
856.708	22096.23
857.03	21910.24
857.352	21886.97
857.674	21914.99
857.996	21745.95
858.318	21670.48
858.64	21692.62
858.961	21545.28
859.283	21498.95
859.605	21421.67
859.926	21492.63
860.248	21386.87
860.57	21330.37
860.891	21339.18
861.212	21200.21
861.534	21155.46
861.855	21167.89
862.176	21138.74
862.498	21100.09
862.819	21052.41
863.14	20998.4
863.461	20828.46
863.782	20882.02
864.103	20774
864.424	20770.16
864.745	20838.18
865.065	20743.49
865.386	20571.52
865.707	20641.58
866.027	20698.52
866.348	20584.85
866.668	20507.57
866.989	20545.99
867.309	20275.94
867.63	20359.55
867.95	20414.92
868.27	20235.26
868.59	20460.34
868.91	20290.4
869.23	20334.69
869.55	20187.12
869.87	20251.76
870.19	20111.19
870.51	20113.23
870.83	20125.43
871.15	20001.82
871.469	19965.44
871.789	20054.47
872.109	20023.51
872.428	19810.64
872.748	19864.2
873.067	19775.84
873.386	19896.06
873.706	19827.81
874.025	19728.83
874.344	19665.1
874.663	19724.76
874.982	19680.25
875.301	19595.73
875.62	19540.14
875.939	19526.35
876.258	19579
876.577	19463.98
876.896	19516.86
877.214	19386.69
877.533	19463.53
877.852	19440.03
878.17	19316.86
878.489	19357.54
878.807	19242.29
879.125	19262.63
879.444	19195.96
879.762	19096.76
880.08	19146.93
880.398	19150.54
880.716	19079.36
881.034	19015.4
881.352	19045.69
881.67	18977.44
881.988	18920.72
882.306	18877.33
882.624	18821.74
882.941	18791.91
883.259	18756.43
883.577	18832.58
883.894	18760.95
884.212	18664
884.529	18663.77
884.846	18509.65
885.164	18504.91
885.481	18378.81
885.798	18353.5
886.115	18394.4
886.432	18416.78
886.75	18374.52
887.067	18325.7
887.383	18256.33
887.7	18209.32
888.017	18050.01
888.334	18081.19
888.651	17977.47
888.967	17987.86
889.284	17787.19
889.6	17845.04
889.917	17773.4
890.233	17790.35
890.55	17736.79
890.866	17701.31
891.182	17685.95
891.498	17732.5
891.815	17570.92
892.131	17389.23
892.447	17455.44
892.763	17421.1
893.079	17288.67
893.395	17304.26
893.71	17167.09
894.026	17170.93
894.342	17122.57
894.657	17126.41
894.973	17107.66
895.289	16996.25
895.604	17053.87
895.92	16846.2
896.235	16744.5
896.55	16784.95
896.865	16756.25
897.181	16649.82
897.496	16663.6
897.811	16526.2
898.126	16509.71
898.441	16343.61
898.756	16384.29
899.071	16301.58
899.386	16477.62
899.7	16121.24
900.015	16168.7
900.33	15968.03
900.644	16067.23
900.959	15963.05
901.273	15921.25
901.588	15872.89
901.902	15845.77
902.216	15729.39
902.531	15579.34
902.845	15658.43
903.159	15523.52
903.473	15498.66
903.787	15417.31
904.101	15309.06
904.415	15370.98
904.729	15275.39
905.042	15215.28
905.356	15067.94
905.67	15120.37
905.984	14992.23
906.297	15022.97
906.611	14951.78
906.924	14920.14
907.237	14792.01
907.551	14810.09
907.864	14669.76
908.177	14758.11
908.491	14610.1
908.804	14487.84
909.117	14410.1
909.43	14298.47
909.743	14286.71
910.056	14276.77
910.368	14197.23
910.681	14247.39
910.994	14127.62
911.307	13971.69
911.619	13939.38
911.932	13954.52
912.244	13837.01
912.557	13816.44
912.869	13757.46
913.181	13658.03
913.494	13618.03
913.806	13583.46
914.118	13440.86
914.43	13445.15
914.742	13411.48
915.054	13347.76
915.366	13290.13
915.678	13218.72
915.99	13196.35
916.302	13044.26
916.613	13106.86
916.925	13123.13
917.236	13008.33
917.548	12901.67
917.859	12903.02
918.171	12842.46
918.482	12778.05
918.794	12785.06
919.105	12633.65
919.416	12620.54
919.727	12590.26
920.038	12534.22
920.349	12469.59
920.66	12342.13
920.971	12369.03
921.282	12338.74
921.593	12255.13
921.903	12094.91
922.214	12150.5
922.525	11994.8
922.835	12007.23
923.146	11947.57
923.456	11903.95
923.767	11901.92
924.077	11851.07
924.387	11750.96
924.697	11746.89
925.008	11637.97
925.318	11616.5
925.628	11597.29
925.938	11568.82
926.248	11384.64
926.558	11414.7
926.867	11347.81
927.177	11298.54
927.487	11263.29
927.796	11209.73
928.106	11254.03
928.416	11091.77
928.725	11117.98
929.034	11012.68
929.344	11098.32
929.653	10992.11
929.962	10955.05
930.271	10858.78
930.581	10791.89
930.89	10732.91
931.199	10670.09
931.508	10661.73
931.817	10592.35
932.125	10601.39
932.434	10518
932.743	10508.96
933.051	10361.62
933.36	10362.07
933.669	10349.42
933.977	10293.15
934.286	10221.96
934.594	10189.65
934.902	10138.58
935.21	10082.08
935.519	10072.36
935.827	9977
936.135	9993.04
936.443	9842.99
936.751	9878.24
937.059	9866.27
937.367	9785.36
937.674	9761.64
937.982	9730
938.29	9646.61
938.597	9645.25
938.905	9512.38
939.213	9565.26
939.52	9510.34
939.827	9538.37
940.135	9464.47
940.442	9390.8
940.749	9347.18
941.056	9319.39
941.363	9254.08
941.67	9249.33
941.977	9151.48
942.284	9137.47
942.591	9085.95
942.898	9054.08
943.205	9096.79
943.511	8962.11
943.818	8974.76
944.125	8871.26
944.431	8824.03
944.738	8844.15
945.044	8810.93
945.35	8658.39
945.657	8647.09
945.963	8705.17
946.269	8684.15
946.575	8654.77
946.881	8524.83
947.187	8514.21
947.493	8441.67
947.799	8416.36
948.105	8409.36
948.41	8316.25
948.716	8358.28
949.022	8324.61
949.327	8243.03
949.633	8182.92
949.938	8236.48
950.244	8130.27
950.549	8060.89
950.854	8046.2
951.16	8029.7
951.465	7990.61
951.77	7970.5
952.075	7952.87
952.38	7904.28
952.685	7827.9
952.99	7775.47
953.294	7786.32
953.599	7747
953.904	7734.34
954.209	7537.97
954.513	7672.43
954.818	7614.57
955.122	7570.96
955.426	7490.06
955.731	7501.81
956.035	7467.69
956.339	7430.17
956.643	7360.57
956.948	7283.51
957.252	7333.9
957.556	7262.49
957.86	7280.35
958.163	7259.55
958.467	7236.5
958.771	7199.22
959.075	7143.63
959.378	7053.91
959.682	7104.08
959.985	7010.75
960.289	7007.13
960.592	6960.13
960.896	6991.09
961.199	6998.09
961.502	6926.68
961.805	6845.33
962.108	6780.02
962.411	6821.15
962.714	6723.07
963.017	6678.78
963.32	6737.08
963.623	6684.2
963.926	6661.83
964.228	6604.43
964.531	6568.27
964.833	6580.25
965.136	6478.11
965.438	6514.72
965.741	6441.05
966.043	6447.15
966.345	6416.19
966.648	6371.22
966.95	6398.11
967.252	6308.17
967.554	6271.56
967.856	6237.43
968.158	6231.56
968.46	6192.92
968.761	6251.22
969.063	6190.66
969.365	6140.49
969.666	6057.1
969.968	6034.05
970.269	6008.74
970.571	6013.94
970.872	5952.92
971.174	5921.28
971.475	5920.83
971.776	5886.03
972.077	5903.21
972.378	5807.16
972.679	5842.64
972.98	5807.62
973.281	5821.4
973.582	5755.41
973.883	5740.27
974.183	5706.6
974.484	5665.47
974.785	5622.08
975.085	5612.37
975.386	5600.84
975.686	5551.13
975.986	5546.38
976.287	5531.69
976.587	5452.14
976.887	5431.81
977.187	5445.82
977.487	5398.36
977.787	5391.13
978.087	5388.19
978.387	5374.63
978.687	5333.05
978.987	5309.32
979.286	5275.65
979.586	5247.4
979.885	5195.88
980.185	5187.07
980.484	5138.25
980.784	5105.71
981.083	5138.25
981.382	5079.73
981.682	5092.38
981.981	5056
982.28	5051.48
982.579	4999.05
982.878	4989.11
983.177	4923.12
983.475	4965.38
983.774	4872.95
984.073	4898.71
984.372	4820.52
984.67	4865.49
984.969	4860.97
985.267	4814.87
985.566	4753.86
985.864	4743.24
986.162	4747.08
986.461	4752.73
986.759	4723.35
987.057	4653.52
987.355	4619.17
987.653	4616.69
987.951	4569.46
988.249	4576.24
988.547	4585.5
988.844	4515.22
989.142	4528.78
989.44	4477.93
989.737	4487.42
990.035	4471.83
990.332	4415.56
990.63	4353.19
990.927	4366.98
991.224	4334.89
991.521	4362.46
991.819	4324.04
992.116	4302.12
992.413	4284.27
992.71	4259.18
993.006	4196.13
993.303	4229.35
993.6	4195.45
993.897	4195.68
994.193	4152.97
994.49	4105.97
994.787	4100.99
995.083	4102.35
995.379	4046.31
995.676	4034.55
995.972	4016.93
996.268	4020.32
996.565	3962.69
996.861	3959.98
997.157	3936.48
997.453	3878.63
997.749	3880.21
998.044	3820.1
998.34	3807.67
998.636	3816.93
998.932	3803.6
999.227	3780.32
999.523	3788.46
999.818	3745.07
1000.114	3739.42
1000.409	3698.74
1000.704	3703.72
1001	3678.86
1001.295	3642.02
1001.59	3625.07
1001.885	3597.05
1002.18	3596.6
1002.475	3579.43
1002.77	3572.87
1003.065	3524.74
1003.359	3469.6
1003.654	3470.73
1003.949	3453.33
1004.243	3459.43
1004.538	3385.31
1004.832	3389.15
1005.127	3344.4
1005.421	3365.42
1005.715	3355.02
1006.009	3319.55
1006.304	3307.57
1006.598	3263.28
1006.892	3251.98
1007.186	3241.13
1007.48	3210.17
1007.773	3186.44
1008.067	3164.97
1008.361	3157.29
1008.655	3166.56
1008.948	3123.84
1009.242	3101.92
1009.535	3112.55
1009.829	3076.84
1010.122	3052.43
1010.415	3062.83
1010.708	3033.68
1011.001	2991.42
1011.295	2936.28
1011.588	2955.49
1011.881	2927.69
1012.173	2889.95
1012.466	2882.95
1012.759	2897.86
1013.052	2846.34
1013.344	2829.39
1013.637	2820.58
1013.93	2807.69
1014.222	2786.68
1014.514	2749.39
1014.807	2753.23
1015.099	2756.85
1015.391	2717.98
1015.683	2711.43
1015.976	2684.76
1016.268	2616.29
1016.56	2634.59
1016.851	2626.23
1017.143	2620.13
1017.435	2603.63
1017.727	2597.76
1018.018	2552.11
1018.31	2567.93
1018.602	2572.67
1018.893	2540.13
1019.185	2486.12
1019.476	2479.57
1019.767	2459.68
1020.058	2439.12
1020.35	2409.51
1020.641	2348.95
1020.932	2373.81
1021.223	2377.42
1021.514	2321.15
1021.804	2327.26
1022.095	2320.48
1022.386	2329.52
1022.677	2284.54
1022.967	2262.4
1023.258	2264.88
1023.548	2261.27
1023.839	2267.14
1024.129	2223.08
1024.419	2193.93
1024.709	2180.14
1025	2165.45
1025.29	2174.49
1025.58	2143.98
1025.87	2121.38
1026.16	2121.84
1026.449	2095.62
1026.739	2067.15
1027.029	2070.31
1027.319	2032.57
1027.608	2023.76
1027.898	2023.53
1028.187	1981.73
1028.477	2009.3
1028.766	1989.18
1029.055	1954.84
1029.344	1935.4
1029.634	1908.96
1029.923	1914.16
1030.212	1874.39
1030.501	1876.19
1030.79	1892.69
1031.078	1860.83
1031.367	1843.2
1031.656	1847.95
1031.945	1830.77
1032.233	1781.28
1032.522	1798
1032.81	1783.77
1033.099	1780.15
1033.387	1740.83
1033.675	1753.71
1033.963	1713.26
1034.251	1729.3
1034.54	1694.96
1034.828	1669.42
1035.116	1695.18
1035.403	1646.14
1035.691	1649.76
1035.979	1649.31
1036.267	1618.35
1036.554	1645.01
1036.842	1610.44
1037.129	1605.92
1037.417	1588.97
1037.704	1577.67
1037.992	1555.07
1038.279	1597.33
1038.566	1547.39
1038.853	1547.39
1039.14	1547.39
