Data from 7548_FLMS001491_007.txt Node
Date: Thu Apr 12 17:06:31 BST 2018
User: hsy
Spectrometer: FLMS00149
Trigger mode: 0
Integration Time (sec): 1.000000E-2
Scans to average: 10
Electric dark correction enabled: true
Nonlinearity correction enabled: false
Boxcar width: 0
XAxis mode: Wavelengths
Number of Pixels in Spectrum: 2048
>>>>>Begin Spectral Data<<<<<
341.393	15.13
341.776	15.13
342.16	15.13
342.543	-50.18
342.927	-64.87
343.31	-70.97
343.693	-76.85
344.077	-66.23
344.46	-69.84
344.843	-63.74
345.226	-42.05
345.61	-20.13
345.993	-16.96
346.376	1.79
346.759	15.13
347.142	26.65
347.525	41.34
347.908	61.45
348.291	58.29
348.674	104.16
349.057	117.95
349.44	116.82
349.823	148
350.206	163.82
350.588	238.17
350.971	256.02
351.354	280.88
351.737	279.07
352.119	282.92
352.502	301.9
352.884	308.9
353.267	341.67
353.65	350.94
354.032	347.1
354.414	349.13
354.797	343.93
355.179	365.63
355.562	365.4
355.944	376.7
356.326	407.43
356.709	394.1
357.091	409.47
357.473	392.74
357.855	392.97
358.238	382.8
358.62	395.68
359.002	382.57
359.384	389.58
359.766	404.95
360.148	387.55
360.53	396.59
360.912	391.61
361.294	381.9
361.676	400.43
362.057	382.12
362.439	381.67
362.821	385.29
363.203	381.67
363.584	385.51
363.966	360.2
364.348	390.26
364.729	378.51
365.111	383.03
365.493	385.74
365.874	369.02
366.256	385.29
366.637	368.79
367.019	372.18
367.4	368.79
367.781	373.76
368.163	379.86
368.544	380.99
368.925	377.15
369.306	375.34
369.688	383.93
370.069	374.44
370.45	367.89
370.831	370.37
371.212	390.26
371.593	370.15
371.974	385.74
372.355	388
372.736	378.28
373.117	387.55
373.498	386.64
373.879	381.9
374.26	383.25
374.641	382.8
375.021	390.71
375.402	404.5
375.783	410.14
376.163	413.08
376.544	418.96
376.925	411.27
377.305	398.85
377.686	386.87
378.066	413.76
378.447	425.74
378.827	401.56
379.208	407.66
379.588	418.05
379.968	418.05
380.349	423.48
380.729	421.67
381.109	433.42
381.489	421.22
381.87	415.34
382.25	445.17
382.63	436.36
383.01	447.21
383.39	421.9
383.77	434.32
384.15	449.47
384.53	458.05
384.91	458.28
385.29	450.37
385.67	471.61
386.049	440.2
386.429	458.5
386.809	457.15
387.189	453.08
387.568	470.71
387.948	454.66
388.328	475.68
388.707	477.26
389.087	461.89
389.466	459.18
389.846	471.39
390.225	486.75
390.605	516.58
390.984	493.76
391.363	481.1
391.743	483.36
392.122	476.58
392.501	492.18
392.881	500.31
393.26	487.2
393.639	525.62
394.018	524.27
394.397	503.93
394.776	535.57
395.155	521.1
395.534	523.14
395.913	525.17
396.292	528.11
396.671	515.23
397.05	536.24
397.429	528.79
397.808	523.59
398.186	546.41
398.565	564.49
398.944	564.94
399.323	554.77
399.701	569.69
400.08	568.33
400.458	565.85
400.837	559.29
401.215	582.8
401.594	572.4
401.972	567.2
402.351	545.06
402.729	576.69
403.107	590.25
403.486	583.47
403.864	561.1
404.242	604.72
404.62	607.2
404.999	618.05
405.377	613.98
405.755	618.95
406.133	610.37
406.511	634.32
406.889	627.31
407.267	646.52
407.645	650.59
408.023	643.36
408.401	644.71
408.779	672.28
409.156	662.12
409.534	658.5
409.912	685.84
410.29	680.87
410.667	711.15
411.045	690.36
411.422	706.41
411.8	705.96
412.178	722.45
412.555	711.83
412.933	738.72
413.31	735.33
413.687	744.6
414.065	753.41
414.442	753.41
414.819	753.86
415.197	766.29
415.574	785.95
415.951	778.72
416.328	766.75
416.705	779.17
417.082	798.61
417.46	798.38
417.837	783.02
418.214	809.46
418.591	830.02
418.967	835.44
419.344	827.08
419.721	837.7
420.098	844.03
420.475	849.68
420.852	844.71
421.228	826.4
421.605	855.78
421.982	853.52
422.358	832.73
422.735	856.46
423.111	857.14
423.488	889.68
423.864	898.95
424.241	911.15
424.617	888.1
424.994	894.43
425.37	905.27
425.746	917.93
426.123	916.8
426.499	932.84
426.875	963.58
427.251	941.88
427.627	959.06
428.003	976.23
428.379	984.82
428.756	994.76
429.132	996.8
429.507	1011.48
429.883	1009
430.259	1037.47
430.635	1073.86
431.011	1050.58
431.387	1049.45
431.763	1066.62
432.138	1091.93
432.514	1098.04
432.89	1106.17
433.265	1092.39
433.641	1139.84
434.016	1148.43
434.392	1151.82
434.767	1191.37
435.143	1154.76
435.518	1189.33
435.894	1173.74
436.269	1224.81
436.644	1206.73
437.02	1191.37
437.395	1223.23
437.77	1252.38
438.145	1260.74
438.52	1266.85
438.895	1268.65
439.271	1267.3
439.646	1310.46
440.021	1295.77
440.395	1310.91
440.77	1289.67
441.145	1286.96
441.52	1349.1
441.895	1344.36
442.27	1363.79
442.645	1358.37
443.019	1357.24
443.394	1347.3
443.769	1360.85
444.143	1354.98
444.518	1377.12
444.892	1399.95
445.267	1397.01
445.641	1386.84
446.016	1413.28
446.39	1425.26
446.764	1416.67
447.139	1432.26
447.513	1423.45
447.887	1475.43
448.262	1456.22
448.636	1461.42
449.01	1476.11
449.384	1495.31
449.758	1511.58
450.132	1533.05
450.506	1520.4
450.88	1517.91
451.254	1558.59
451.628	1555.88
452.002	1580.28
452.376	1578.7
452.75	1590
453.123	1630
453.497	1639.72
453.871	1629.55
454.244	1701.86
454.618	1662.09
454.992	1742.31
455.365	1738.7
455.739	1746.83
456.112	1773.95
456.486	1788.87
456.859	1818.24
457.232	1846.94
457.606	1843.33
457.979	1844.91
458.352	1892.37
458.725	1912.03
459.099	1939.82
459.472	1956.77
459.845	2001.52
460.218	1979.59
460.591	2015.53
460.964	2059.37
461.337	2096.2
461.71	2097.56
462.083	2130.33
462.456	2140.95
462.829	2164.22
463.201	2180.04
463.574	2168.74
463.947	2177.78
464.32	2220.49
464.692	2265.69
465.065	2254.39
465.438	2265.91
465.81	2338.68
466.183	2359.25
466.555	2398.34
466.928	2424.33
467.3	2421.17
467.672	2456.19
468.045	2502.52
468.417	2534.16
468.789	2507.49
469.161	2570.77
469.534	2575.74
469.906	2645.11
470.278	2614.61
470.65	2710.42
471.022	2753.59
471.394	2796.3
471.766	2800.14
472.138	2838.78
472.51	2923.52
472.882	2922.62
473.253	2970.98
473.625	3020.7
473.997	3054.59
474.369	3070.64
474.74	3113.58
475.112	3187.47
475.484	3262.27
475.855	3294.36
476.227	3326.9
476.598	3413.68
476.97	3424.3
477.341	3502.72
477.713	3575.49
478.084	3591.53
478.455	3706.1
478.827	3709.27
479.198	3831.75
479.569	3875.14
479.94	3974.8
480.311	4028.13
480.682	4096.83
481.053	4184.28
481.424	4275.81
481.795	4370.04
482.166	4399.87
482.537	4493.2
482.908	4577.72
483.279	4680.99
483.65	4751.5
484.021	4888.9
484.391	4958.73
484.762	4972.51
485.133	5097.48
485.503	5241.88
485.874	5345.83
486.244	5430.8
486.615	5528.43
486.985	5627.86
487.356	5722.55
487.726	5862.88
488.097	5996.44
488.467	6064.23
488.837	6249.09
489.207	6366.6
489.578	6532.7
489.948	6665.8
490.318	6734.27
490.688	6859.01
491.058	7061.27
491.428	7250.87
491.798	7342.84
492.168	7531.31
492.538	7633.46
492.908	7795.04
493.278	7938.99
493.648	8186.21
494.017	8291.29
494.387	8453.77
494.757	8597.73
495.126	8781.22
495.496	8969.02
495.866	9080.88
496.235	9319.29
496.605	9488.55
496.974	9609.9
497.344	9853.74
497.713	10014.41
498.082	10225.71
498.452	10460.05
498.821	10641.97
499.19	10783.88
499.559	11030.2
499.928	11299.8
500.298	11434.26
500.667	11650.53
501.036	11812.78
501.405	12001.03
501.774	12215.71
502.143	12476.95
502.512	12703.83
502.88	12950.83
503.249	13089.36
503.618	13337.49
503.987	13506.07
504.356	13857.93
504.724	14021.09
505.093	14183.34
505.462	14489.77
505.83	14660.62
506.199	14986.03
506.567	15363.42
506.936	15367.94
507.304	15769.97
507.672	16013.8
508.041	16157.08
508.409	16470.97
508.777	16664.18
509.145	17020.1
509.514	17058.97
509.882	17418.06
510.25	17651.27
510.618	17884.26
510.986	18039.06
511.354	18296.91
511.722	18645.37
512.09	18827.74
512.458	18946.61
512.826	19258.91
513.193	19378.69
513.561	19667.72
513.929	19947.94
514.297	20153.13
514.664	20349.73
515.032	20559.45
515.4	20890.51
515.767	21091.86
516.135	21202.59
516.502	21235.59
516.869	21649.59
517.237	21911.5
517.604	21913.99
517.972	22398.04
518.339	22515.33
518.706	22688.2
519.073	22876.67
519.44	23031.02
519.808	23441.18
520.175	23464.68
520.542	23821.51
520.909	24101.73
521.276	24239.35
521.643	24493.58
522.009	24739.45
522.376	24981.25
522.743	25041.14
523.11	25543.27
523.477	25830.95
523.843	25919.3
524.21	26206.75
524.577	26463.24
524.943	26795.21
525.31	26867.3
525.676	27319.49
526.043	27523.33
526.409	27651.69
526.776	28028.63
527.142	28002.41
527.508	28403.76
527.874	28660.48
528.241	28836.29
528.607	28918.1
528.973	29315.6
529.339	29314.02
529.705	29706.32
530.071	29973.44
530.437	30115.13
530.803	30462.69
531.169	30562.12
531.535	30694.32
531.901	30860.19
532.267	31062.67
532.632	31274.19
532.998	31492.49
533.364	31730.9
533.73	31842.09
534.095	31935.87
534.461	31993.95
534.826	32300.15
535.192	32378.8
535.557	32684.78
535.923	32684.32
536.288	32922.06
536.653	33124.54
537.019	33107.14
537.384	33135.84
537.749	33379.9
538.114	33517.52
538.479	33493.57
538.845	33880.9
539.21	33922.48
539.575	33978.53
539.94	34112.31
540.305	34415.13
540.67	34304.17
541.034	34492.64
541.399	34708.9
541.764	34844.95
542.129	34967.2
542.494	35029.57
542.858	35209.68
543.223	35176.46
543.587	35467.3
543.952	35512.27
544.316	35590.91
544.681	35595.89
545.045	35930.57
545.41	35972.37
545.774	36060.05
546.138	36258.47
546.503	36279.03
546.867	36256.89
547.231	36597.89
547.595	36609.64
547.959	36856.87
548.324	36797.21
548.688	36974.61
549.052	37190.65
549.416	37053.47
549.779	37269.29
550.143	37277.2
550.507	37635.38
550.871	37766.22
551.235	37678.54
551.599	38123.96
551.962	38001.02
552.326	38382.71
552.689	38343.61
553.053	38276.72
553.417	38464.96
553.78	38751.96
554.143	38782.47
554.507	39116.02
554.87	39226.75
555.234	39508.55
555.597	39168.45
555.96	39613.18
556.323	39668.1
556.686	39710.81
557.05	40005.49
557.413	40141.3
557.776	40242.09
558.139	40494.51
558.502	40584.46
558.865	40554.63
559.228	40879.36
559.59	41031.22
559.953	41148.51
560.316	41604.77
560.679	41598.44
561.041	41854.7
561.404	41922.95
561.767	42243.62
562.129	42185.54
562.492	42610.62
562.854	42649.49
563.217	42809.93
563.579	42968.8
563.941	43349.81
564.304	43378.28
564.666	43684.26
565.028	43789.12
565.39	43733.98
565.753	44135.1
566.115	44086.51
566.477	44494.86
566.839	44728.53
567.201	44984.34
567.563	44950.44
567.925	45060.04
568.287	45222.3
568.648	45347.04
569.01	45636.98
569.372	46022.28
569.734	46025.22
570.095	46326
570.457	46424.75
570.819	46541.59
571.18	46617.29
571.542	46924.63
571.903	46953.55
572.265	47256.82
572.626	47487.55
572.987	47465.4
573.349	47839.63
573.71	47884.6
574.071	48010.02
574.432	48214.54
574.794	48495.43
575.155	48563.45
575.516	48594.87
575.877	48740.63
576.238	48872.6
576.599	49110.78
576.96	49127.51
577.32	49391.23
577.681	49395.52
578.042	49618.34
578.403	49790.99
578.763	49903.98
579.124	49889.07
579.485	50197.99
579.845	50341.94
580.206	50523.86
580.566	50457.64
580.927	50533.12
581.287	50754.13
581.648	50798.42
582.008	51101.47
582.368	51214.68
582.728	51354.79
583.089	51316.83
583.449	51433.89
583.809	51545.98
584.169	51700.77
584.529	51700.55
584.889	52093.53
585.249	51927.43
585.609	51963.82
585.969	52334.88
586.329	52157.03
586.688	52483.13
587.048	52506.63
587.408	52648.77
587.768	52771.48
588.127	52756.79
588.487	52943
588.846	53326.04
589.206	53037.46
589.565	53265.93
589.925	53488.52
590.284	53581.85
590.643	53682.19
591.003	53739.82
591.362	54062.29
591.721	54047.83
592.08	54076.98
592.44	54409.85
592.799	54350.87
593.158	54435.84
593.517	54553.35
593.876	54751.99
594.235	54778.21
594.593	54902.5
594.952	55024.08
595.311	55040.35
595.67	55203.05
596.029	55427
596.387	55508.13
596.746	55627.45
597.104	55650.5
597.463	55758.75
597.822	55982.47
598.18	55798.97
598.538	55997.61
598.897	56269.24
599.255	56143.14
599.613	56530.48
599.972	56374.1
600.33	56587.42
600.688	56537.48
601.046	56722.56
601.404	56968.21
601.762	56891.37
602.12	57107.86
602.478	57128.2
602.836	57219.72
603.194	57163.68
603.552	57323.68
603.91	57336.11
604.268	57503.11
604.625	57506.72
604.983	57697.23
605.341	57727.96
605.698	57858.58
606.056	58015.86
606.413	58026.26
606.771	58122.07
607.128	58230.55
607.485	58197.78
607.843	58273.26
608.2	58458.56
608.557	58555.96
608.914	58551.21
609.272	58757.08
609.629	58811.09
609.986	58942.84
610.343	58890.64
610.7	59175.15
611.057	59114.59
611.414	59139.9
611.771	59281.36
612.127	59353
612.484	59392.77
612.841	59532.43
613.198	59502.83
613.554	59487.91
613.911	59675.25
614.267	59734.46
614.624	59719.55
614.98	59875.93
615.337	60010.84
615.693	59987.79
616.05	60055.13
616.406	60169.03
616.762	60181.91
617.118	60165.41
617.475	60181.23
617.831	60402.69
618.187	60390.04
618.543	60424.84
618.899	60606.75
619.255	60533.31
619.611	60548.45
619.967	60663.02
620.323	60772.4
620.678	60668.9
621.034	60735.79
621.39	60670.71
621.746	60738.28
622.101	61030.92
622.457	60807.2
622.812	60938.95
623.168	61003.81
623.523	61033.64
623.879	61077.93
624.234	61017.14
624.589	61117.7
624.945	61081.77
625.3	61155.89
625.655	61170.13
626.01	61210.13
626.365	61233.18
626.72	61219.85
627.075	61150.47
627.43	61144.82
627.785	61210.81
628.14	61221.88
628.495	61219.39
628.85	61217.81
629.205	61204.7
629.559	61343.23
629.914	61152.73
630.269	61272.5
630.623	61143.69
630.978	61061.43
631.332	61192.05
631.687	61173.29
632.041	61138.94
632.396	61184.82
632.75	61163.35
633.104	61195.21
633.459	61135.1
633.813	61059.62
634.167	61063.24
634.521	61071.83
634.875	60998.61
635.229	61082.9
635.583	60957.93
635.937	60974.65
636.291	60952.96
636.645	60956.8
636.999	60797.03
637.352	60919.51
637.706	60746.86
638.06	60942.56
638.413	60823.02
638.767	60764.49
639.121	60843.13
639.474	60727.2
639.828	60764.72
640.181	60692.18
640.534	60790.25
640.888	60652.63
641.241	60585.96
641.594	60637.71
641.947	60676.81
642.301	60535.34
642.654	60594.55
643.007	60538.73
643.36	60588.68
643.713	60539.86
644.066	60554.55
644.419	60425.29
644.771	60231.17
645.124	59959.99
645.477	59978.3
645.83	59842.48
646.182	59831.41
646.535	59797.74
646.888	59807.23
647.24	59732.65
647.593	59840.45
647.945	59695.59
648.298	59659.66
648.65	59555.03
649.002	59414.47
649.355	59388.48
649.707	59439.55
650.059	59409.05
650.411	59700.34
650.763	59778.08
651.115	60119.99
651.467	60011.06
651.819	60009.26
652.171	59913.21
652.523	59880.9
652.875	59953.44
653.227	59748.47
653.578	59985.3
653.93	59851.29
654.282	59755.02
654.633	59738.98
654.985	59738.75
655.337	59750.05
655.688	59731.3
656.039	59785.76
656.391	59583.73
656.742	59626.44
657.094	59561.81
657.445	59661.47
657.796	59671.64
658.147	59583.05
658.498	59604.29
658.849	59620.11
659.2	59591.87
659.551	59505.09
659.902	59672.77
660.253	59491.75
660.604	59614.01
660.955	59454.47
661.306	59559.55
661.656	59394.13
662.007	59456.28
662.358	59426.67
662.708	59494.47
663.059	59442.49
663.409	59288.82
663.76	59475.94
664.11	59402.27
664.461	59474.58
664.811	59504.64
665.161	59414.02
665.511	59319.1
665.862	59365.66
666.212	59408.82
666.562	59427.58
666.912	59350.06
667.262	59296.73
667.612	59303.06
667.962	59347.35
668.312	59300.12
668.662	59329.95
669.011	59284.3
669.361	59282.27
669.711	59314.13
670.06	59186.68
670.41	59222.38
670.76	59220.8
671.109	59298.31
671.459	59217.86
671.808	59223.74
672.157	59219.67
672.507	59117.75
672.856	59146.45
673.205	59155.04
673.554	59189.16
673.904	59057.64
674.253	59289.27
674.602	59102.39
674.951	58813.35
675.3	58663.98
675.649	59121.6
675.998	59081.6
676.346	59134.93
676.695	59114.14
677.044	58978.55
677.393	59036.17
677.741	59084.53
678.09	58986.68
678.438	58981.26
678.787	59025.33
679.135	59010.86
679.484	58833.02
679.832	58963.41
680.181	58817.65
680.529	58853.58
680.877	58752.79
681.225	58788.95
681.573	58882.28
681.922	58759.12
682.27	58737.42
682.618	58734.03
682.966	58661.72
683.314	58711.89
683.661	58692.45
684.009	58532.68
684.357	58527.49
684.705	58533.14
685.053	58615.62
685.4	58419.01
685.748	58426.47
686.095	58453.36
686.443	58287.72
686.79	58285.23
687.138	58380.37
687.485	58341.95
687.832	58198.91
688.18	58259.02
688.527	58099.7
688.874	58165.46
689.221	58137.44
689.568	58041.85
689.915	57936.54
690.262	58011.57
690.609	57938.58
690.956	57849.09
691.303	57854.74
691.65	57722.54
691.997	57713.72
692.344	57567.96
692.69	57591.47
693.037	57613.39
693.383	57427.18
693.73	57524.35
694.077	57355.99
694.423	57338.82
694.769	57290.91
695.116	57262.66
695.462	57165.04
695.808	57035.55
696.155	57187.18
696.501	56880.3
696.847	56973.86
697.193	56825.61
697.539	56920.3
697.885	56693.41
698.231	56604.83
698.577	56572.28
698.923	56530.93
699.269	56412.97
699.614	56335
699.96	56232.86
700.306	56328
700.651	56112.41
700.997	56032.18
701.342	56082.35
701.688	56056.14
702.033	55925.52
702.379	55947.67
702.724	55780.89
703.069	55836.48
703.415	55536.6
703.76	55521.69
704.105	55503.61
704.45	55482.59
704.795	55410.96
705.14	55264.75
705.485	55311.75
705.83	55188.82
706.175	55215.71
706.52	55130.06
706.865	55092.55
707.209	54946.79
707.554	54904.53
707.899	54910.18
708.243	54752.67
708.588	54704.08
708.932	54580.92
709.277	54558.78
709.621	54570.75
709.966	54273.81
710.31	54394.94
710.654	54163.08
710.998	54254.15
711.342	54233.36
711.687	54177.77
712.031	54099.13
712.375	54020.71
712.719	53914.27
713.063	53873.37
713.407	54031.79
713.75	53833.82
714.094	53806.48
714.438	53557.9
714.782	53631.12
715.125	53539.37
715.469	53592.02
715.812	53347.51
716.156	53279.26
716.499	53329.43
716.843	53323.33
717.186	53309.77
717.53	53314.52
717.873	53357
718.216	53291.24
718.559	53072.71
718.902	52873.4
719.246	52960.63
719.589	52803.57
719.932	52717.47
720.275	52696
720.617	52793.85
720.96	52616.23
721.303	52670.24
721.646	52712.72
721.989	52546.63
722.331	52604.03
722.674	52480.87
723.016	52463.47
723.359	52313.86
723.701	52364.48
724.044	52204.71
724.386	52070.26
724.729	52239.74
725.071	52231.83
725.413	52179.18
725.755	52022.12
726.097	51881.11
726.439	51750.49
726.782	51758.85
727.124	51802.24
727.465	51817.38
727.807	51621
728.149	51772.86
728.491	51552.53
728.833	51566.09
729.175	51517.05
729.516	51402.02
729.858	51317.28
730.199	51571.06
730.541	51398.41
730.882	51246.55
731.224	51326.32
731.565	51118.87
731.906	51162.03
732.248	51186.44
732.589	51011.53
732.93	50971.3
733.271	51011.75
733.612	50902.15
733.953	51025.76
734.294	50815.15
734.635	50732.44
734.976	50910.74
735.317	50734.47
735.658	50664.87
735.999	50654.93
736.339	50586
736.68	50616.96
737.021	50613.34
737.361	50452.22
737.702	50591.88
738.042	50479.56
738.383	50391.2
738.723	50337.42
739.063	50245.67
739.404	50352.11
739.744	50219
740.084	50098.33
740.424	50186.69
740.764	50215.39
741.104	50214.71
741.444	50003.42
741.784	49899.24
742.124	50104.21
742.464	49979.46
742.804	49863.31
743.143	49716.42
743.483	49935.4
743.823	49681.62
744.162	49659.7
744.502	49714.84
744.841	49538.12
745.181	49649.98
745.52	49454.96
745.86	49498.35
746.199	49418.35
746.538	49457.44
746.877	49482.3
747.216	49373.6
747.556	49288.63
747.895	49273.27
748.234	49032.37
748.573	49127.06
748.911	49076.89
749.25	49043.89
749.589	48933.61
749.928	48861.98
750.267	48907.85
750.605	48816.78
750.944	48659.27
751.283	48550.57
751.621	48727.07
751.96	48529.33
752.298	48504.25
752.636	48393.06
752.975	48354.87
753.313	48142
753.651	48399.39
753.989	48047.31
754.327	48156.23
754.666	47855
755.004	47988.55
755.342	47968.22
755.679	47873.98
756.017	47542.92
756.355	47693.87
756.693	47454.78
757.031	47558.96
757.368	47220.67
757.706	47335.69
758.044	47159.65
758.381	47088.69
758.719	46983.84
759.056	47048.47
759.394	46864.06
759.731	46563.06
760.068	46471.08
760.405	46658.19
760.743	46390.4
761.08	46292.1
761.417	46248.04
761.754	46038.78
762.091	45862.51
762.428	45784.09
762.765	45746.13
763.102	45779.12
763.438	45510.65
763.775	45272.92
764.112	45310.21
764.449	45252.36
764.785	45175.75
765.122	44819.37
765.458	44699.15
765.795	44745.02
766.131	44730.79
766.467	44529.89
766.804	43994.76
767.14	44018.72
767.476	43985.5
767.812	43747.76
768.148	43985.72
768.485	43740.76
768.821	43383.48
769.157	43310.94
769.492	43146.2
769.828	43058.97
770.164	42846.99
770.5	42786.43
770.836	42748.24
771.171	42487
771.507	42420.34
771.842	42126.11
772.178	42294.92
772.513	42056.73
772.849	41683.41
773.184	41769.28
773.519	41621.04
773.855	41430.08
774.19	41381.95
774.525	41090.2
774.86	41070.32
775.195	40802.75
775.53	40765.92
775.865	40542.42
776.2	40346.5
776.535	40104.24
776.87	40057.46
777.205	39882.33
777.539	39791.26
777.874	39782.44
778.209	39503.81
778.543	39393.98
778.878	39236.47
779.212	39094.78
779.547	38857.72
779.881	38885.97
780.215	38664.51
780.55	38796.71
780.884	38266.55
781.218	38325.98
781.552	38379.09
781.886	38070.17
782.22	37957.41
782.554	37825.66
782.888	37438.78
783.222	37526.23
783.556	37184.32
783.889	37129.41
784.223	36965.34
784.557	36869.98
784.89	37009.86
785.224	36603.54
785.557	36497.78
785.891	36455.07
786.224	36356.54
786.558	36337.11
786.891	35963.56
787.224	35916.56
787.557	35662.33
787.891	35537.13
788.224	35495.32
788.557	35486.96
788.89	35348.21
789.223	35137.82
789.556	34970.59
789.888	35006.3
790.221	34718.17
790.554	34644.5
790.887	34502.58
791.219	34443.15
791.552	34376.03
791.884	34160.67
792.217	34212.19
792.549	34036.38
792.882	33456.51
793.214	33597.07
793.546	33609.72
793.879	33406.34
794.211	33136.06
794.543	33400.01
794.875	33151.2
795.207	33040.7
795.539	33002.96
795.871	32953.7
796.203	32808.61
796.535	32469.64
796.867	32517.77
797.198	32257.44
797.53	32218.57
797.862	32129.99
798.193	32113.72
798.525	31943.78
798.856	32127.05
799.188	31486.84
799.519	31501.98
799.85	31345.38
800.182	31426.96
800.513	31422.89
800.844	31108.77
801.175	31296.79
801.506	31321.2
801.837	31096.12
802.168	30909.23
802.499	30880.53
802.83	30629.91
803.161	30694.32
803.491	30659.29
803.822	30674.43
804.153	30372.29
804.483	30243.48
804.814	29951.06
805.145	30093.66
805.475	30078.74
805.805	29963.49
806.136	29942.93
806.466	29884.4
806.796	29834
807.126	29631.52
807.457	29584.52
807.787	29543.16
808.117	29405.54
808.447	29255.26
808.777	29357.86
809.107	29162.16
809.436	29081.48
809.766	29072.22
810.096	29114.47
810.426	28836.97
810.755	28941.82
811.085	28771.43
811.414	28723.07
811.744	28594.04
812.073	28662.06
812.403	28469.52
812.732	28368.73
813.061	28483.53
813.39	28171.22
813.719	28112.24
814.049	28298.68
814.378	28187.72
814.707	27943.88
815.036	27996.31
815.365	27827.05
815.693	27603.1
816.022	27629.54
816.351	27551.58
816.68	27489.21
817.008	27507.96
817.337	27200.85
817.665	27287.4
817.994	27259.61
818.322	27244.92
818.651	27241.76
818.979	27115.88
819.307	27145.49
819.636	27121.98
819.964	26921.99
820.292	26964.25
820.62	26929
820.948	26883.12
821.276	27060.97
821.604	26832.5
821.932	27204.47
822.259	26991.37
822.587	26897.36
822.915	26859.39
823.243	26942.33
823.57	26728.1
823.898	26933.06
824.225	26872.05
824.553	26912.27
824.88	26853.74
825.207	26816.68
825.535	26824.82
825.862	26920.86
826.189	26866.17
826.516	26946.62
826.843	26982.33
827.17	26946.17
827.497	26970.58
827.824	26831.82
828.151	27043.34
828.478	26813.74
828.805	27058.94
829.131	26836.79
829.458	26991.37
829.785	26693.3
830.111	26843.8
830.438	26955.89
830.764	26928.32
831.09	27008.09
831.417	26619.62
831.743	27025.49
832.069	26788.21
832.395	26680.19
832.722	26830.69
833.048	26672.05
833.374	26912.5
833.7	26656.69
834.026	26864.82
834.351	26667.31
834.677	26776.23
835.003	26607.65
835.329	26672.73
835.654	26638.83
835.98	26478.61
836.306	26590.02
836.631	26356.81
836.956	26510.93
837.282	26565.84
837.607	26424.83
837.932	26371.72
838.258	26277.49
838.583	26304.83
838.908	26259.63
839.233	26152.29
839.558	26099.64
839.883	26081.56
840.208	25988.46
840.533	26129.47
840.858	25961.34
841.182	25901
841.507	25967.89
841.832	25809.25
842.156	25926.54
842.481	25793.66
842.805	25727.22
843.13	25618.97
843.454	25574.91
843.778	25442.93
844.103	25504.63
844.427	25407
844.751	25437.74
845.075	25338.53
845.399	25336.72
845.723	25204.07
846.047	25053.79
846.371	25043.85
846.695	24964.3
847.019	24738.77
847.343	24689.28
847.666	24688.6
847.99	24561.6
848.313	24383.75
848.637	24440.7
848.96	24228.73
849.284	24261.27
849.607	24070.99
849.931	24067.38
850.254	23945.8
850.577	23757.1
850.9	23556.43
851.223	23593.49
851.546	23492.02
851.869	23407.05
852.192	23454.96
852.515	23288.19
852.838	23094.97
853.161	23146.95
853.483	22910.12
853.806	22894.53
854.129	22879.84
854.451	22742.66
854.774	22646.62
855.096	22602.33
855.419	22487.98
855.741	22487.76
856.063	22400.53
856.385	22326.18
856.708	22272.85
857.03	22241.21
857.352	22176.58
857.674	22024.94
857.996	21905.17
858.318	21859.98
858.64	21963.93
858.961	21723.48
859.283	21733.88
859.605	21570.94
859.926	21640.77
860.248	21523.26
860.57	21560.32
860.891	21478.97
861.212	21375.24
861.534	21308.13
861.855	21133.22
862.176	21258.64
862.498	21232.65
862.819	21162.14
863.14	21046.89
863.461	21120.33
863.782	21066.32
864.103	21097.51
864.424	20957.17
864.745	21051.86
865.065	20849.38
865.386	20810.96
865.707	20822.04
866.027	20795.37
866.348	20818.42
866.668	20716.05
866.989	20596.96
867.309	20497.98
867.63	20564.19
867.95	20578.43
868.27	20418.66
868.59	20501.59
868.91	20414.36
869.23	20394.93
869.55	20323.52
869.87	20477.64
870.19	20254.59
870.51	20317.87
870.83	20224.54
871.15	20154.94
871.469	20183.41
871.789	20136.41
872.109	20175.73
872.428	20063.41
872.748	20143.86
873.067	20065.22
873.386	20077.88
873.706	20048.05
874.025	19878.79
874.344	19899.12
874.663	19772.12
874.982	19741.39
875.301	19845.57
875.62	19690.54
875.939	19661.84
876.258	19743.42
876.577	19533.94
876.896	19550.66
877.214	19577.55
877.533	19600.6
877.852	19470.66
878.17	19515.18
878.489	19433.83
878.807	19367.61
879.125	19434.96
879.444	19441.06
879.762	19275.19
880.08	19314.96
880.398	19168.3
880.716	19261.4
881.034	19188.86
881.352	19189.31
881.67	19079.94
881.988	18984.8
882.306	19042.87
882.624	19069.99
882.941	18994.29
883.259	18807.17
883.577	18874.74
883.894	18771.47
884.212	18793.16
884.529	18748.65
884.846	18597.91
885.164	18418.94
885.481	18530.12
885.798	18537.35
886.115	18364.02
886.432	18478.6
886.75	18534.41
887.067	18437.24
887.383	18324.7
887.7	18211.26
888.017	18115.22
888.334	18143.92
888.651	17961.77
888.967	18104.59
889.284	17976.46
889.6	17925.39
889.917	17966.07
890.233	17777.37
890.55	17842.68
890.866	17778.95
891.182	17745.51
891.498	17667.32
891.815	17581.9
892.131	17483.37
892.447	17551.39
892.763	17453.99
893.079	17430.26
893.395	17306.65
893.71	17431.62
894.026	17207.67
894.342	17272.53
894.657	17015.58
894.973	17136.03
895.289	17097.84
895.604	16987.11
895.92	16891.07
896.235	16934.91
896.55	16882.93
896.865	16764.97
897.181	16761.35
897.496	16723.16
897.811	16536.95
898.126	16499.67
898.441	16536.5
898.756	16489.5
899.071	16326.34
899.386	16528.14
899.7	16268.48
900.015	16142.61
900.33	16071.65
900.644	15998.44
900.959	16032.78
901.273	15960.02
901.588	15977.64
901.902	15849.74
902.216	15820.81
902.531	15815.62
902.845	15667.82
903.159	15653.13
903.473	15566.81
903.787	15441.84
904.101	15395.29
904.415	15404.1
904.729	15278.45
905.042	15292.69
905.356	15197.33
905.67	15094.73
905.984	15119.81
906.297	15108.06
906.611	14921.63
906.924	15000.04
907.237	14994.85
907.551	14959.37
907.864	14757.11
908.177	14789.2
908.491	14658.13
908.804	14554.63
909.117	14508.53
909.43	14421.98
909.743	14443.22
910.056	14388.76
910.368	14315.77
910.681	14261.31
910.994	14180.18
911.307	14109.45
911.619	14014.76
911.932	14009.11
912.244	13947.87
912.557	13906.74
912.869	13789.23
913.181	13687.08
913.494	13724.37
913.806	13665.16
914.118	13697.48
914.43	13527.99
914.742	13558.73
915.054	13459.07
915.366	13442.12
915.678	13380.43
915.99	13400.76
916.302	13268.11
916.613	13292.97
916.925	13157.15
917.236	13047.33
917.548	12986.09
917.859	13050.72
918.171	12902.02
918.482	12788.58
918.794	12814.79
919.105	12761.91
919.416	12628.35
919.727	12669.71
920.038	12627.45
920.349	12432.88
920.66	12535.48
920.971	12455.7
921.282	12397.63
921.593	12314.01
921.903	12327.57
922.214	12261.36
922.525	12202.83
922.835	12142.94
923.146	12072.89
923.456	12042.83
923.767	11959.9
924.077	11933.46
924.387	11805.33
924.697	11814.59
925.008	11793.8
925.318	11727.59
925.628	11654.82
925.938	11633.58
926.248	11504.54
926.558	11437.88
926.867	11443.98
927.177	11385.22
927.487	11384.55
927.796	11209.63
928.106	11301.38
928.416	11224.1
928.725	11147.49
929.034	11107.72
929.344	11121.95
929.653	11050.77
929.962	10858.01
930.271	10924.44
930.581	10837.67
930.89	10784.56
931.199	10680.61
931.508	10655.75
931.817	10645.58
932.125	10710.21
932.434	10514.29
932.743	10484.91
933.051	10459.6
933.36	10420.95
933.669	10358.81
933.977	10365.82
934.286	10361.3
934.594	10324.91
934.902	10253.05
935.21	10173.73
935.519	10194.29
935.827	10077.69
936.135	10005.15
936.443	9927.86
936.751	9984.58
937.059	9960.85
937.367	9900.52
937.674	9838.15
937.982	9854.87
938.29	9765.38
938.597	9746.85
938.905	9608.09
939.213	9588.43
939.52	9608.09
939.827	9541.66
940.135	9474.31
940.442	9422.11
940.749	9439.51
941.056	9494.88
941.363	9320.42
941.67	9276.8
941.977	9157.26
942.284	9159.07
942.591	9147.32
942.898	9140.99
943.205	9087.88
943.511	9046.53
943.818	8991.39
944.125	8930.6
944.431	8911.84
944.738	8899.41
945.044	8830.04
945.35	8826.87
945.657	8764.05
945.963	8707.78
946.269	8693.99
946.575	8674.11
946.881	8549.14
947.187	8625.97
947.493	8550.72
947.799	8451.06
948.105	8493.32
948.41	8355.02
948.716	8390.27
949.022	8331.07
949.327	8335.81
949.633	8194.57
949.938	8274.34
950.244	8251.07
950.549	8134.46
950.854	8100.11
951.16	8070.73
951.465	8031.19
951.77	8005.88
952.075	7980.79
952.38	7961.13
952.685	7904.18
952.99	7840.23
953.294	7867.35
953.599	7698.77
953.904	7720.69
954.209	7647.69
954.513	7714.13
954.818	7670.07
955.122	7649.5
955.426	7592.33
955.731	7564.98
956.035	7515.49
956.339	7492.22
956.643	7486.12
956.948	7389.85
957.252	7390.98
957.556	7374.48
957.86	7325.44
958.163	7304.43
958.467	7273.69
958.771	7255.84
959.075	7222.85
959.378	7127.03
959.682	7174.03
959.985	7106.47
960.289	7075.73
960.592	7029.63
960.896	7011.33
961.199	6965.23
961.502	6986.92
961.805	6919.58
962.108	6874.16
962.411	6837.09
962.714	6805.91
963.017	6751.22
963.32	6780.6
963.623	6710.77
963.926	6714.39
964.228	6630.77
964.531	6642.75
964.833	6642.75
965.136	6611.34
965.438	6562.53
965.741	6467.84
966.043	6413.15
966.345	6403.43
966.648	6448.4
966.95	6401.4
967.252	6391.46
967.554	6358.01
967.856	6294.28
968.158	6266.26
968.46	6256.54
968.761	6241.4
969.063	6169.99
969.365	6165.02
969.666	6167.06
969.968	6054.06
970.269	6030.79
970.571	6044.8
970.872	6045.25
971.174	6015.87
971.475	5958.02
971.776	5981.75
972.077	5884.8
972.378	5926.16
972.679	5864.46
972.98	5870.11
973.281	5884.12
973.582	5827.63
973.883	5773.62
974.183	5708.76
974.484	5708.76
974.785	5673.51
975.085	5669.67
975.386	5647.75
975.686	5643.68
975.986	5535.89
976.287	5544.92
976.587	5496.56
976.887	5509.9
977.187	5525.49
977.487	5431.03
977.787	5421.31
978.087	5396
978.387	5383.12
978.687	5306.51
978.987	5304.48
979.286	5276.91
979.586	5304.93
979.885	5195.78
980.185	5259.28
980.484	5178.83
980.784	5141.55
981.083	5122.56
981.382	5150.81
981.682	5079.4
981.981	5069.23
982.28	5082.34
982.579	5011.38
982.878	5002.11
983.177	4968.67
983.475	4936.58
983.774	4943.58
984.073	4860.42
984.372	4850.48
984.67	4886.86
984.969	4882.57
985.267	4875.34
985.566	4829.46
985.864	4746.98
986.162	4756.24
986.461	4744.49
986.759	4690.94
987.057	4644.38
987.355	4650.26
987.653	4608
987.951	4581.11
988.249	4563.26
988.547	4607.32
988.844	4555.57
989.142	4517.16
989.44	4466.54
989.737	4462.92
990.035	4458.85
990.332	4460.21
990.63	4430.38
990.927	4391.06
991.224	4356.26
991.521	4374.11
991.819	4302.7
992.116	4326.65
992.413	4282.81
992.71	4264.05
993.006	4214.56
993.303	4213.21
993.6	4198.97
993.897	4194.45
994.193	4184.51
994.49	4149.48
994.787	4115.36
995.083	4082.36
995.379	4069.71
995.676	4027.9
995.972	4042.59
996.268	4001.24
996.565	3998.07
996.861	3956.94
997.157	3973.21
997.453	3907.23
997.749	3886.44
998.044	3851.86
998.34	3870.39
998.636	3871.75
998.932	3829.94
999.227	3819.32
999.523	3782.03
999.818	3789.26
1000.114	3712.88
1000.409	3709.94
1000.704	3663.84
1001	3654.35
1001.295	3610.29
1001.59	3568.25
1001.885	3613.22
1002.18	3605.54
1002.475	3599.89
1002.77	3537.29
1003.065	3503.17
1003.359	3498.42
1003.654	3502.72
1003.949	3465.21
1004.243	3446.22
1004.538	3428.37
1004.832	3426.56
1005.127	3443.29
1005.421	3392.67
1005.715	3367.13
1006.009	3369.16
1006.304	3304.31
1006.598	3295.94
1006.892	3318.09
1007.186	3249.39
1007.48	3206.91
1007.773	3180.24
1008.067	3214.59
1008.361	3180.47
1008.655	3154.93
1008.948	3129.4
1009.242	3086.46
1009.535	3125.55
1009.829	3067.25
1010.122	3086.68
1010.415	3053.01
1010.708	3003.97
1011.001	2981.83
1011.295	2979.12
1011.588	3002.17
1011.881	2931.89
1012.173	2930.76
1012.466	2913.81
1012.759	2877.42
1013.052	2893.24
1013.344	2876.75
1013.637	2824.54
1013.93	2811.21
1014.222	2765.11
1014.514	2799.91
1014.807	2745.9
1015.099	2760.14
1015.391	2748.61
1015.683	2730.76
1015.976	2673.81
1016.268	2658.67
1016.56	2654.15
1016.851	2641.5
1017.143	2648.5
1017.435	2606.02
1017.727	2601.73
1018.018	2554.49
1018.31	2550.65
1018.602	2519.24
1018.893	2520.82
1019.185	2548.39
1019.476	2475.4
1019.767	2453.71
1020.058	2469.98
1020.35	2420.94
1020.641	2431.56
1020.932	2398.79
1021.223	2373.93
1021.514	2357.44
1021.804	2322.86
1022.095	2357.21
1022.386	2300.49
1022.677	2304.11
1022.967	2298.46
1023.258	2289.87
1023.548	2269.53
1023.839	2256.42
1024.129	2252.13
1024.419	2219.59
1024.709	2201.74
1025	2167.39
1025.29	2132.59
1025.58	2144.11
1025.87	2121.51
1026.16	2119.03
1026.449	2138.46
1026.739	2062.53
1027.029	2043.32
1027.319	2055.3
1027.608	2027.05
1027.898	2015.75
1028.187	2003.55
1028.477	2023.89
1028.766	1991.35
1029.055	1950.44
1029.344	1975.53
1029.634	1958.58
1029.923	1929.2
1030.212	1926.71
1030.501	1906.6
1030.79	1861.41
1031.078	1865.25
1031.367	1830.22
1031.656	1814.85
1031.945	1826.15
1032.233	1806.27
1032.522	1804.68
1032.81	1760.62
1033.099	1779.15
1033.387	1774.18
1033.675	1731.01
1033.963	1746.61
1034.251	1742.31
1034.54	1712.71
1034.828	1678.13
1035.116	1698.92
1035.403	1680.17
1035.691	1661.41
1035.979	1670.68
1036.267	1645.59
1036.554	1650.56
1036.842	1596.78
1037.129	1592.26
1037.417	1591.81
1037.704	1599.04
1037.992	1573.28
1038.279	1547.74
1038.566	1549.78
1038.853	1549.78
1039.14	1549.78
