Data from 7548_FLMS001491_001.txt Node
Date: Thu Apr 12 17:06:16 BST 2018
User: hsy
Spectrometer: FLMS00149
Trigger mode: 0
Integration Time (sec): 1.000000E-2
Scans to average: 10
Electric dark correction enabled: true
Nonlinearity correction enabled: false
Boxcar width: 0
XAxis mode: Wavelengths
Number of Pixels in Spectrum: 2048
>>>>>Begin Spectral Data<<<<<
341.393	-3.55
341.776	-3.55
342.16	-3.55
342.543	-56.2
342.927	-56.88
343.31	-61.62
343.693	-68.4
344.077	-79.25
344.46	-47.16
344.843	-58.91
345.226	-52.36
345.61	-28.63
345.993	-5.58
346.376	7.08
346.759	4.36
347.142	38.71
347.525	12.05
347.908	60.41
348.291	77.13
348.674	83.91
349.057	118.26
349.44	150.12
349.823	150.35
350.206	199.61
350.588	241.19
350.971	261.76
351.354	268.99
351.737	284.36
352.119	287.29
352.502	322.77
352.884	320.29
353.267	323
353.65	327.29
354.032	345.15
354.414	377.69
354.797	370.23
355.179	377.24
355.562	365.94
355.944	381.76
356.326	394.41
356.709	383.11
357.091	375.88
357.473	396.22
357.855	395.09
358.238	413.85
358.62	382.66
359.002	376.56
359.384	386.95
359.766	392.38
360.148	395.99
360.53	397.8
360.912	413.39
361.294	362.55
361.676	382.66
362.057	402.09
362.439	382.21
362.821	384.02
363.203	377.69
363.584	388.08
363.966	392.6
364.348	365.26
364.729	397.57
365.111	398.03
365.493	369.1
365.874	381.3
366.256	377.01
366.637	379.5
367.019	394.41
367.4	385.37
367.781	374.75
368.163	381.98
368.544	384.47
368.925	386.28
369.306	377.46
369.688	390.34
370.069	377.46
370.45	383.11
370.831	405.48
371.212	371.36
371.593	384.92
371.974	387.18
372.355	375.43
372.736	386.05
373.117	407.07
373.498	391.25
373.879	386.05
374.26	398.48
374.641	382.89
375.021	383.56
375.402	403.9
375.783	421.3
376.163	415.43
376.544	434.86
376.925	420.62
377.305	398.25
377.686	412.94
378.066	410.23
378.447	394.64
378.827	406.39
379.208	419.49
379.588	402.77
379.968	407.07
380.349	427.63
380.729	439.61
381.109	421.75
381.489	431.47
381.87	438.7
382.25	421.08
382.63	420.62
383.01	430.79
383.39	402.32
383.77	444.58
384.15	428.31
384.53	451.58
384.91	432.15
385.29	461.53
385.67	464.01
386.049	456.56
386.429	455.88
386.809	458.59
387.189	451.58
387.568	468.76
387.948	468.98
388.328	474.63
388.707	462.21
389.087	475.09
389.466	473.73
389.846	491.36
390.225	499.72
390.605	478.7
390.984	464.01
391.363	487.29
391.743	504.46
392.122	498.81
392.501	511.7
392.881	506.5
393.26	503.11
393.639	500.4
394.018	504.01
394.397	512.37
394.776	537.91
395.155	506.05
395.534	523.67
395.913	527.97
396.292	530.45
396.671	512.37
397.05	530.68
397.429	538.81
397.808	537.23
398.186	573.16
398.565	565.93
398.944	564.8
399.323	537.01
399.701	560.96
400.08	560.73
400.458	563.9
400.837	562.99
401.215	563.67
401.594	564.12
401.972	569.77
402.351	580.39
402.729	570.9
403.107	564.8
403.486	572.26
403.864	584.69
404.242	595.54
404.62	607.29
404.999	594.63
405.377	602.77
405.755	602.54
406.133	596.44
406.511	619.49
406.889	619.04
407.267	600.96
407.645	630.79
408.023	636.21
408.401	644.8
408.779	676.21
409.156	650.9
409.534	648.64
409.912	686.61
410.29	665.59
410.667	668.75
411.045	681.86
411.422	689.54
411.8	708.98
412.178	692.48
412.555	698.58
412.933	706.49
413.31	721.18
413.687	712.59
414.065	735.42
414.442	735.19
414.819	757.79
415.197	761.63
415.574	744.23
415.951	750.56
416.328	765.93
416.705	779.03
417.082	793.27
417.46	795.98
417.837	793.72
418.214	812.48
418.591	768.41
418.967	793.27
419.344	802.76
419.721	795.76
420.098	820.61
420.475	850.67
420.852	841.86
421.228	833.5
421.605	844.79
421.982	839.14
422.358	859.48
422.735	850.9
423.111	863.1
423.488	863.55
423.864	873.49
424.241	851.8
424.617	910.33
424.994	887.5
425.37	893.15
425.746	879.6
426.123	922.53
426.499	908.97
426.875	904.68
427.251	944
427.627	919.37
428.003	937.45
428.379	982.19
428.756	963.44
429.132	981.06
429.507	980.84
429.883	979.71
430.259	1012.25
430.635	1021.51
431.011	1022.87
431.387	1058.35
431.763	1053.38
432.138	1062.42
432.514	1042.53
432.89	1077.1
433.265	1108.06
433.641	1114.62
434.016	1103.09
434.392	1098.35
434.767	1127.95
435.143	1140.83
435.518	1149.42
435.894	1141.51
436.269	1163.43
436.644	1170.66
437.02	1179.7
437.395	1191.9
437.77	1210.21
438.145	1212.92
438.52	1183.99
438.895	1263.54
439.271	1252.92
439.646	1262.64
440.021	1282.3
440.395	1266.48
440.77	1256.76
441.145	1266.03
441.52	1288.85
441.895	1311.67
442.27	1286.36
442.645	1312.58
443.019	1307.15
443.394	1316.65
443.769	1338.11
444.143	1316.87
444.518	1339.92
444.892	1371.56
445.267	1363.2
445.641	1361.62
446.016	1371.33
446.39	1375.85
446.764	1390.32
447.139	1376.98
447.513	1411.56
447.887	1390.99
448.262	1426.02
448.636	1418.11
449.01	1452.01
449.384	1478.68
449.758	1424.67
450.132	1465.34
450.506	1477.77
450.88	1510.09
451.254	1497.21
451.628	1524.78
452.002	1543.98
452.376	1539.92
452.75	1554.83
453.123	1588.96
453.497	1590.09
453.871	1600.71
454.244	1634.38
454.618	1633.7
454.992	1677.77
455.365	1663.3
455.739	1706.01
456.112	1716.64
456.486	1758.67
456.859	1759.57
457.232	1790.08
457.606	1776.3
457.979	1825.11
458.352	1859.91
458.725	1883.64
459.099	1862.85
459.472	1919.57
459.845	1936.52
460.218	1972.22
460.591	1947.14
460.964	1995.05
461.337	2015.84
461.71	2024.65
462.083	2045.21
462.456	2055.61
462.829	2118.43
463.201	2133.35
463.574	2107.81
463.947	2151.2
464.32	2191.43
464.692	2205.89
465.065	2222.39
465.438	2245.44
465.81	2245.66
466.183	2275.94
466.555	2328.6
466.928	2353.91
467.3	2365.66
467.672	2403.4
468.045	2415.15
468.417	2423.74
468.789	2446.79
469.161	2469.61
469.534	2498.99
469.906	2570.85
470.278	2571.53
470.65	2596.84
471.022	2679.77
471.394	2729.72
471.766	2750.73
472.138	2764.29
472.51	2831.18
472.882	2860.33
473.253	2871.41
473.625	2951.41
473.997	2990.05
474.369	2971.29
474.74	3012.65
475.112	3082.48
475.484	3140.33
475.855	3206.31
476.227	3230.72
476.598	3333.77
476.97	3317.27
477.341	3401.56
477.713	3441.34
478.084	3503.71
478.455	3595
478.827	3614.44
479.198	3750.25
479.569	3729.92
479.94	3845.39
480.311	3911.15
480.682	3990.93
481.053	4068.66
481.424	4149.79
481.795	4200.86
482.166	4302.1
482.537	4363.57
482.908	4432.04
483.279	4571.25
483.65	4671.81
484.021	4700.51
484.391	4756.78
484.762	4927.62
485.133	4964.91
485.503	5043.33
485.874	5196.54
486.244	5265.47
486.615	5377.78
486.985	5476.31
487.356	5543.43
487.726	5641.05
488.097	5918.79
488.467	5956.75
488.837	6097.09
489.207	6203.98
489.578	6339.56
489.948	6492.1
490.318	6648.48
490.688	6660.91
491.058	6812.09
491.428	6987.46
491.798	7155.81
492.168	7314.45
492.538	7546.09
492.908	7636.71
493.278	7797.15
493.648	7884.84
494.017	8138.39
494.387	8267.2
494.757	8417.7
495.126	8564.59
495.496	8773.4
495.866	8967.07
496.235	9084.8
496.605	9313.27
496.974	9505.58
497.344	9633.94
497.713	9812.92
498.082	10091.78
498.452	10238.9
498.821	10446.12
499.19	10567.25
499.559	10879.11
499.928	11074.81
500.298	11183.96
500.667	11480.22
501.036	11552.54
501.405	11825.97
501.774	12039.53
502.143	12269.35
502.512	12492.17
502.88	12731.71
503.249	12992.95
503.618	13221.19
503.987	13395.42
504.356	13602.2
504.724	13882.19
505.093	14052.58
505.462	14215.52
505.83	14505
506.199	14796.29
506.567	15100.69
506.936	15241.48
507.304	15586.78
507.672	15742.93
508.041	15893.66
508.409	16273.99
508.777	16460.43
509.145	16737.48
509.514	16844.83
509.882	17199.17
510.25	17283.01
510.618	17580.4
510.986	17685.03
511.354	17968.19
511.722	18325.24
512.09	18514.84
512.458	18617.21
512.826	18945.11
513.193	19104.88
513.561	19350.75
513.929	19663.06
514.297	19793.9
514.664	20151.86
515.032	20295.58
515.4	20591.39
515.767	20831.84
516.135	20961.55
516.502	20908.45
516.869	21421.43
517.237	21589.33
517.604	21564.02
517.972	21968.76
518.339	22130.79
518.706	22406.71
519.073	22563.32
519.44	22786.59
519.808	23074.04
520.175	23141.38
520.542	23541.37
520.909	23789.73
521.276	23797.86
521.643	24146.1
522.009	24313.1
522.376	24669.7
522.743	24896.14
523.11	25128.9
523.477	25339.52
523.843	25624.26
524.21	25941.54
524.577	26151.25
524.943	26381.3
525.31	26472.37
525.676	26966.14
526.043	27063.09
526.409	27252.46
526.776	27621.49
527.142	27728.61
527.508	27866.68
527.874	28263.73
528.241	28481.36
528.607	28624.18
528.973	28989.14
529.339	28949.37
529.705	29321.56
530.071	29555.23
530.437	29811.04
530.803	29980.3
531.169	30310.46
531.535	30270.24
531.901	30539.15
532.267	30646.27
532.632	30973.95
532.998	30998.8
533.364	31240.83
533.73	31548.85
534.095	31708.16
534.461	31736.86
534.826	32013.92
535.192	32181.82
535.557	32507.01
535.923	32457.75
536.288	32556.05
536.653	32713.56
537.019	32733.45
537.384	33002.59
537.749	33109.93
538.114	33188.8
538.479	33322.13
538.845	33441.9
539.21	33472.86
539.575	33659.52
539.94	33796.24
540.305	34091.6
540.67	33955.56
541.034	34151.72
541.399	34185.39
541.764	34366.85
542.129	34463.8
542.494	34598.93
542.858	34781.75
543.223	34740.17
543.587	35073.27
543.952	35069.66
544.316	35265.81
544.681	35188.52
545.045	35563.66
545.41	35489.53
545.774	35648.62
546.138	35588.74
546.503	35726.81
546.867	35836.87
547.231	36185.79
547.595	36256.29
547.959	36303.07
548.324	36362.28
548.688	36477.08
549.052	36697.41
549.416	36592.55
549.779	36749.61
550.143	36916.16
550.507	37089.94
550.871	37222.37
551.235	37224.85
551.599	37635.69
551.962	37742.58
552.326	37903.93
552.689	38070.26
553.053	37774.22
553.417	37966.3
553.78	38324.71
554.143	38518.38
554.507	38571.03
554.87	38698.26
555.234	39021.64
555.597	38878.14
555.96	39043.11
556.323	39109.1
556.686	39124.92
557.05	39552.02
557.413	39662.3
557.776	39667.05
558.139	40135.29
558.502	40024.78
558.865	40147.04
559.228	40500.93
559.59	40598.33
559.953	40805.55
560.316	41214.81
560.679	41090.06
561.041	41333.45
561.404	41513.78
561.767	41963.94
562.129	41814.11
562.492	42041.68
562.854	42107.89
563.217	42326.19
563.579	42546.3
563.941	42706.97
564.304	42909.22
564.666	43238.93
565.028	43263.79
565.39	43353.73
565.753	43750.78
566.115	43650
566.477	43936.32
566.839	44141.51
567.201	44462.4
567.563	44531.56
567.925	44724.54
568.287	44871.66
568.648	44929.74
569.01	45242.95
569.372	45466.45
569.734	45456.5
570.095	45802.26
570.457	45996.83
570.819	46046.32
571.18	46064.17
571.542	46489.7
571.903	46400.66
572.265	46788.67
572.626	46814.66
572.987	46897.14
573.349	47200.19
573.71	47397.69
574.071	47439.28
574.432	47791.58
574.794	47959.04
575.155	47959.04
575.516	48006.27
575.877	48297.33
576.238	48353.6
576.599	48512.47
576.96	48644.89
577.32	48767.83
577.681	48970.99
578.042	49141.38
578.403	49242.62
578.763	49433.57
579.124	49439.22
579.485	49700.46
579.845	49861.13
580.206	49890.06
580.566	50048.7
580.927	50123.5
581.287	50348.13
581.648	50306.77
582.008	50548.35
582.368	50666.31
582.728	50729.81
583.089	50853.2
583.449	50964.38
583.809	51088.9
584.169	51278.95
584.529	51229.68
584.889	51641.88
585.249	51513.74
585.609	51474.42
585.969	51824.7
586.329	51761.42
586.688	52057.46
587.048	52123.22
587.408	52185.14
587.768	52275.53
588.127	52377.9
588.487	52544.68
588.846	52796.87
589.206	52701.06
589.565	52869.41
589.925	53096.3
590.284	53039.81
590.643	53201.16
591.003	53477.99
591.362	53686.79
591.721	53641.6
592.08	53697.42
592.44	54007.92
592.799	53967.01
593.158	54099.44
593.517	54059.21
593.876	54324.07
594.235	54472.08
594.593	54554.79
594.952	54616.04
595.311	54607
595.67	54814
596.029	55090.15
596.387	55207.21
596.746	55387.99
597.104	55219.18
597.463	55307.09
597.822	55617.59
598.18	55536.24
598.538	55746.63
598.897	55826.85
599.255	55752.73
599.613	56213.73
599.972	56001.76
600.33	56256.67
600.688	56264.58
601.046	56414.86
601.404	56652.14
601.762	56602.65
602.12	56814.85
602.478	56906.14
602.836	56924
603.194	56931
603.552	57021.85
603.91	57071.79
604.268	57216.42
604.625	57295.51
604.983	57429.97
605.341	57421.61
605.698	57608.27
606.056	57815.95
606.413	57791.09
606.771	57982.5
607.128	58012.78
607.485	58002.16
607.843	58049.39
608.2	58198.09
608.557	58340.68
608.914	58337.29
609.272	58495.03
609.629	58589.49
609.986	58729.6
610.343	58703.84
610.7	58830.39
611.057	58866.55
611.414	58890.05
611.771	59063.6
612.127	59167.78
612.484	59269.92
612.841	59281.68
613.198	59252.98
613.554	59301.79
613.911	59471.73
614.267	59530.26
614.624	59530.93
614.98	59601.67
615.337	59806.63
615.693	59786.3
616.05	59850.93
616.406	59973.41
616.762	59939.06
617.118	59974.76
617.475	59998.04
617.831	60212.5
618.187	60219.73
618.543	60259.5
618.899	60388.77
619.255	60330.01
619.611	60368.43
619.967	60479.84
620.323	60606.84
620.678	60498.37
621.034	60460.85
621.39	60513.28
621.746	60594.18
622.101	60813.84
622.457	60685.25
622.812	60784.91
623.168	60885.7
623.523	60799.6
623.879	60917.79
624.234	60795.53
624.589	60879.6
624.945	60946.94
625.3	60986.94
625.655	61026.04
626.01	61011.12
626.365	61025.81
626.72	60998.01
627.075	60961.41
627.43	60988.52
627.785	60985.59
628.14	61010.44
628.495	61044.34
628.85	61087.96
629.205	61032.82
629.559	61082.53
629.914	61042.76
630.269	61128.86
630.623	60951.46
630.978	60922.54
631.332	61080.27
631.687	61125.92
632.041	61019.03
632.396	61045.92
632.75	61013.61
633.104	61065.58
633.459	60954.17
633.813	60938.36
634.167	60927.06
634.521	60906.72
634.875	60941.07
635.229	60913.72
635.583	60800.28
635.937	60786.72
636.291	60821.97
636.645	60769.09
636.999	60723.45
637.352	60744.24
637.706	60582.21
638.06	60775.87
638.413	60640.96
638.767	60572.26
639.121	60609.1
639.474	60469.67
639.828	60492.94
640.181	60485.94
640.534	60565.26
640.888	60464.7
641.241	60342.66
641.594	60434.64
641.947	60413.4
642.301	60327.3
642.654	60375.21
643.007	60285.49
643.36	60329.33
643.713	60351.93
644.066	60365.72
644.419	60252.27
644.771	60007.31
645.124	59720.76
645.477	59754.88
645.83	59644.83
646.182	59572.29
646.535	59549.47
646.888	59632.17
647.24	59497.49
647.593	59625.62
647.945	59504.49
648.298	59466.53
648.65	59338.62
649.002	59219.98
649.355	59271.51
649.707	59170.04
650.059	59155.35
650.411	59497.26
650.763	59614.55
651.115	59887.76
651.467	59796.92
651.819	59796.01
652.171	59734.09
652.523	59771.61
652.875	59751.49
653.227	59585.85
653.578	59784.04
653.93	59714.66
654.282	59662.23
654.633	59515.12
654.985	59568.67
655.337	59546.98
655.688	59608.45
656.039	59662.23
656.391	59434.67
656.742	59459.75
657.094	59489.13
657.445	59464.04
657.796	59546.3
658.147	59369.36
658.498	59409.58
658.849	59577.71
659.2	59397.15
659.551	59353.54
659.902	59443.25
660.253	59308.57
660.604	59405.06
660.955	59271.05
661.306	59340.43
661.656	59250.04
662.007	59246.65
662.358	59277.83
662.708	59256.14
663.059	59122.36
663.409	59090.04
663.76	59215.01
664.11	59241
664.461	59159.87
664.811	59229.02
665.161	59205.97
665.511	59184.5
665.862	59181.57
666.212	59202.58
666.562	59300.66
666.912	59112.19
667.262	59097.5
667.612	59098.63
667.962	59107.89
668.312	59098.4
668.662	59195.12
669.011	59118.06
669.361	58996.26
669.711	59130.04
670.06	59057.95
670.41	58997.39
670.76	58985.86
671.109	59085.07
671.459	58979.08
671.808	58947.22
672.157	58978.41
672.507	58928.92
672.856	58930.5
673.205	59050.27
673.554	59002.14
673.904	58901.12
674.253	59149.02
674.602	58959.88
674.951	58602.82
675.3	58478.76
675.649	58900.67
675.998	58882.82
676.346	58950.84
676.695	58851.4
677.044	58838.98
677.393	58868.81
677.741	58819.99
678.09	58776.38
678.438	58752.65
678.787	58822.7
679.135	58837.85
679.484	58622.71
679.832	58739.54
680.181	58600.79
680.529	58718.3
680.877	58573.67
681.225	58618.87
681.573	58734.12
681.922	58533.67
682.27	58499.78
682.618	58542.94
682.966	58521.24
683.314	58515.82
683.661	58478.08
684.009	58386.78
684.357	58362.15
684.705	58315.6
685.053	58412.55
685.4	58206.45
685.748	58237.18
686.095	58204.42
686.443	58034.48
686.79	58113.12
687.138	58139.56
687.485	58102.72
687.832	58002.16
688.18	58047.81
688.527	57933.24
688.874	58020.47
689.221	57990.64
689.568	57856.18
689.915	57788.38
690.262	57830.19
690.609	57755.84
690.956	57698.89
691.303	57670.87
691.65	57554.72
691.997	57585.22
692.344	57480.14
692.69	57403.53
693.037	57464.77
693.383	57274.5
693.73	57306.59
694.077	57174.16
694.423	57180.04
694.769	57138
695.116	57153.14
695.462	57014.16
695.808	56927.61
696.155	56939.82
696.501	56782.76
696.847	56873.6
697.193	56667.51
697.539	56709.99
697.885	56477.91
698.231	56481.98
698.577	56423.67
698.923	56460.05
699.269	56235.2
699.614	56291.92
699.96	56146.16
700.306	56124.24
700.651	56026.62
700.997	56031.82
701.342	55879.28
701.688	55913.4
702.033	55780.98
702.379	55753.41
702.724	55597.7
703.069	55666.18
703.415	55471.61
703.76	55468.22
704.105	55446.52
704.45	55331.95
704.795	55161.56
705.14	55117.94
705.485	55042.69
705.83	54953.65
706.175	55055.35
706.52	54978.51
706.865	54821
707.209	54777.39
707.554	54697.39
707.899	54718.63
708.243	54542.14
708.588	54513.67
708.932	54353.22
709.277	54443.84
709.621	54351.86
709.966	54148.7
710.31	54233.22
710.654	53913
710.998	54150.96
711.342	54103.05
711.687	53969.95
712.031	53880.01
712.375	53757.75
712.719	53790.52
713.063	53696.51
713.407	53826.68
713.75	53633.01
714.094	53550.08
714.438	53494.26
714.782	53418.1
715.125	53320.93
715.469	53474.82
715.812	53177.88
716.156	53059.47
716.499	53096.98
716.843	53106.92
717.186	52974.72
717.53	53146.7
717.873	53045.68
718.216	52974.27
718.559	52864.9
718.902	52544
719.246	52704
719.589	52638.69
719.932	52487.5
720.275	52505.58
720.617	52521.85
720.96	52362.08
721.303	52401.86
721.646	52419.26
721.989	52211.58
722.331	52328.19
722.674	52157.12
723.016	52196.44
723.359	52050.68
723.701	52121.19
724.044	52012.49
724.386	51807.3
724.729	51830.12
725.071	51963.68
725.413	51840.97
725.755	51781.99
726.097	51757.81
726.439	51630.13
726.782	51615.21
727.124	51704.47
727.465	51584.48
727.807	51394.65
728.149	51500.64
728.491	51373.18
728.833	51411.15
729.175	51319.17
729.516	51321.43
729.858	51274.43
730.199	51304.26
730.541	51121.89
730.882	51065.62
731.224	51026.07
731.565	50960.31
731.906	50966.87
732.248	51004.61
732.589	50701.34
732.93	50659.53
733.271	50716.93
733.612	50714.67
733.953	50798.28
734.294	50643.03
734.635	50468.12
734.976	50675.57
735.317	50512.87
735.658	50557.16
735.999	50394.23
736.339	50401.46
736.68	50428.12
737.021	50352.64
737.361	50280.33
737.702	50404.4
738.042	50129.37
738.383	50184.74
738.723	50176.83
739.063	49996.95
739.404	50179.54
739.744	50012.31
740.084	49991.75
740.424	49959.66
740.764	49802.6
741.104	50005.08
741.444	49668.6
741.784	49647.58
742.124	49724.41
742.464	49559.45
742.804	49575.49
743.143	49506.79
743.483	49553.57
743.823	49351.54
744.162	49440.58
744.502	49493.23
744.841	49253.24
745.181	49382.27
745.52	49161.49
745.86	49324.88
746.199	49149.06
746.538	49090.98
746.877	49224.99
747.216	49104.09
747.556	49050.53
747.895	48884.66
748.234	48921.04
748.573	48898.67
748.911	48844.21
749.25	48861.38
749.589	48617.32
749.928	48763.53
750.267	48597.21
750.605	48499.59
750.944	48441.06
751.283	48437.22
751.621	48424.11
751.96	48277.67
752.298	48189.09
752.636	48237.67
752.975	48070.45
753.313	47881.3
753.651	48144.12
753.989	47776.22
754.327	47708.87
754.666	47551.36
755.004	47753.84
755.342	47680.85
755.679	47561.08
756.017	47352.27
756.355	47498.48
756.693	47353.18
757.031	47400.86
757.368	47065.95
757.706	46921.77
758.044	46907.76
758.381	46876.13
758.719	46842.91
759.056	46765.17
759.394	46628
759.731	46356.59
760.068	46377.16
760.405	46270.04
760.743	46192.53
761.08	46310.49
761.417	46025.3
761.754	45863.72
762.091	45636.84
762.428	45452.89
762.765	45508.7
763.102	45552.32
763.438	45465.09
763.775	45080.92
764.112	45000.24
764.449	44973.8
764.785	44764.32
765.122	44860.36
765.458	44491.78
765.795	44495.4
766.131	44480.26
766.467	44261.05
766.804	43906.94
767.14	43765.93
767.476	43826.26
767.812	43617.23
768.148	43918.24
768.485	43449.78
768.821	43252.72
769.157	43097.69
769.492	42933.18
769.828	42834.2
770.164	42575.22
770.5	42362.12
770.836	42465.17
771.171	42230.37
771.507	42148.57
771.842	41878.52
772.178	41719.65
772.513	41721.46
772.849	41567.79
773.184	41469.04
773.519	41418.87
773.855	41251.87
774.19	41073.11
774.525	40813.46
774.86	40781.15
775.195	40638.78
775.53	40460.25
775.865	40302.51
776.2	39977.78
776.535	39949.75
776.87	39811.23
777.205	39674.28
777.539	39471.35
777.874	39373.95
778.209	39203.11
778.543	39199.27
778.878	39019.61
779.212	38832.72
779.547	38551.15
779.881	38513.63
780.215	38248.56
780.55	38395.45
780.884	37897.83
781.218	37936.93
781.552	38014.66
781.886	37567.44
782.22	37515.47
782.554	37405.87
782.888	37101.02
783.222	37010.4
783.556	36884.98
783.889	36709.16
784.223	36526.79
784.557	36531.99
784.89	36536.06
785.224	36237.76
785.557	35998.22
785.891	36049.97
786.224	35911.67
786.558	35944.89
786.891	35622.86
787.224	35420.16
787.557	35335.19
787.891	35322.98
788.224	35052.71
788.557	35071.24
788.89	35021.52
789.223	34906.5
789.556	34620.63
789.888	34678.25
790.221	34602.32
790.554	34319.17
790.887	34232.39
791.219	34012.96
791.552	33979.97
791.884	33894.55
792.217	33726.42
792.549	33601
792.882	33396.03
793.214	33266.99
793.546	33271.51
793.879	33260.44
794.211	32884.4
794.543	33004.4
794.875	32848.7
795.207	32841.24
795.539	32672.43
795.871	32741.58
796.203	32557.63
796.535	32197.19
796.867	32262.05
797.198	32067.48
797.53	32117.87
797.862	31906.8
798.193	31841.04
798.525	31597.66
798.856	31833.36
799.188	31352.47
799.519	31406.93
799.85	31216.88
800.182	31245.12
800.513	31390.88
800.844	30845.14
801.175	31113.15
801.506	30999.93
801.837	30694.63
802.168	30609.21
802.499	30856.21
802.83	30341.87
803.161	30430.23
803.491	30342.32
803.822	30373.51
804.153	30277.92
804.483	30053.07
804.814	29810.36
805.145	29885.16
805.475	29844.48
805.805	29768.55
806.136	29824.82
806.466	29651.49
806.796	29720.19
807.126	29352.29
807.457	29358.85
807.787	29339.86
808.117	29195.24
808.447	29110.04
808.777	29164.73
809.107	28846.54
809.436	28912.53
809.766	28864.62
810.096	28899.2
810.426	28723.61
810.755	28679.77
811.085	28614.23
811.414	28552.77
811.744	28360.68
812.073	28458.76
812.403	28268.93
812.732	28177.86
813.061	28243.4
813.39	27908.49
813.719	27920.47
814.049	27993.23
814.378	27856.97
814.707	27699.68
815.036	27728.61
815.365	27631.43
815.693	27528.84
816.022	27461.04
816.351	27364.77
816.68	27210.88
817.008	27291.78
817.337	27091.34
817.665	27060.38
817.994	26977.67
818.322	27153.71
818.651	27022.86
818.979	26905.35
819.307	26934.73
819.636	26790.55
819.964	26707.16
820.292	26793.49
820.62	26633.49
820.948	26727.96
821.276	26840.95
821.604	26809.99
821.932	26781.29
822.259	26671.91
822.587	26687.5
822.915	26566.38
823.243	26674.85
823.57	26487.28
823.898	26721.18
824.225	26669.65
824.553	26503.55
824.88	26663.55
825.207	26779.25
825.535	26529.77
825.862	26800.5
826.189	26719.14
826.516	26775.86
826.843	26732.7
827.17	26794.85
827.497	26722.98
827.824	26718.46
828.151	26787.84
828.478	26609.77
828.805	26758.24
829.131	26612.03
829.458	26633.27
829.785	26490.9
830.111	26513.72
830.438	26763.21
830.764	26660.84
831.09	26682.76
831.417	26616.77
831.743	26741.74
832.069	26552.14
832.395	26517.34
832.722	26486.83
833.048	26518.02
833.374	26584.91
833.7	26414.29
834.026	26572.71
834.351	26577
834.677	26508.53
835.003	26355.54
835.329	26470.79
835.654	26301.75
835.98	26216.56
836.306	26453.39
836.631	26228.76
836.956	26403.9
837.282	26342.88
837.607	26341.52
837.932	26219.72
838.258	26115.32
838.583	26068.76
838.908	26030.35
839.233	26110.8
839.558	25865.83
839.883	25920.52
840.208	25831.71
840.533	25859.73
840.858	25800.97
841.182	25843.68
841.507	25759.85
841.832	25626.06
842.156	25687.08
842.481	25610.92
842.805	25522.56
843.13	25466.97
843.454	25435.33
843.778	25397.37
844.103	25208
844.427	25135.68
844.751	25201.67
845.075	25132.97
845.399	25080.09
845.723	24969.81
846.047	25045.06
846.371	24719.65
846.695	24710.16
847.019	24600.33
847.343	24530.5
847.666	24527.79
847.99	24291.86
848.313	24173.45
848.637	24210.28
848.96	24034.47
849.284	24053.22
849.607	23848.94
849.931	23830.18
850.254	23708.15
850.577	23562.84
850.9	23360.13
851.223	23365.56
851.546	23236.3
851.869	23162.63
852.192	23348.38
852.515	22922.63
852.838	22821.84
853.161	22882.63
853.483	22755.18
853.806	22597.44
854.129	22632.47
854.451	22586.6
854.774	22505.69
855.096	22415.3
855.419	22388.41
855.741	22246.27
856.063	22182.09
856.385	22064.8
856.708	22051.47
857.03	22012.37
857.352	21896.9
857.674	21916.56
857.996	21762.44
858.318	21532.39
858.64	21578.26
858.961	21599.28
859.283	21508.43
859.605	21438.38
859.926	21381.43
860.248	21368.1
860.57	21267.31
860.891	21284.93
861.212	21182.34
861.534	21046.97
861.855	20981.89
862.176	21065.73
862.498	21081.55
862.819	21117.93
863.14	20876.58
863.461	20791.16
863.782	20851.73
864.103	20902.57
864.424	20754.33
864.745	20840.2
865.065	20666.87
865.386	20490.38
865.707	20709.58
866.027	20615.35
866.348	20511.4
866.668	20464.62
866.989	20423.71
867.309	20372.87
867.63	20331.29
867.95	20248.13
868.27	20218.52
868.59	20234.57
868.91	20272.53
869.23	20212.19
869.55	20098.53
869.87	20215.36
870.19	20112.99
870.51	20062.82
870.83	20038.19
871.15	19909.15
871.469	19835.03
871.789	19940.34
872.109	19977.85
872.428	19842.49
872.748	19837.52
873.067	19812.66
873.386	19801.13
873.706	19623.74
874.025	19505.77
874.344	19607.69
874.663	19678.88
874.982	19624.41
875.301	19640.68
875.62	19572.21
875.939	19420.35
876.258	19425.32
876.577	19368.37
876.896	19426.45
877.214	19398.43
877.533	19407.7
877.852	19295.16
878.17	19341.71
878.489	19240.47
878.807	19203.63
879.125	19213.35
879.444	19114.6
879.762	19072.11
880.08	19121.38
880.398	19002.51
880.716	19086.8
881.034	18998.22
881.352	19006.35
881.67	18979.68
881.988	18949.18
882.306	18761.39
882.624	18745.11
882.941	18751.67
883.259	18634.16
883.577	18733.36
883.894	18617.89
884.212	18538.79
884.529	18563.42
884.846	18453.82
885.164	18363.43
885.481	18443.65
885.798	18438.46
886.115	18363.66
886.432	18351.68
886.75	18291.79
887.067	18341.28
887.383	18190.1
887.7	18136.09
888.017	17913.72
888.334	18025.81
888.651	17974.97
888.967	17892.03
889.284	17855.65
889.6	17882.76
889.917	17820.39
890.233	17814.74
890.55	17797.34
890.866	17642.32
891.182	17690.68
891.498	17597.57
891.815	17450.69
892.131	17400.52
892.447	17491.81
892.763	17337.69
893.079	17291.82
893.395	17206.85
893.71	17259.28
894.026	17224.02
894.342	17102.45
894.657	16959.62
894.973	16992.84
895.289	17027.87
895.604	16897.71
895.92	16766.41
896.235	16829.01
896.55	16793.98
896.865	16696.13
897.181	16697.48
897.496	16633.98
897.811	16485.74
898.126	16391.5
898.441	16440.54
898.756	16299.98
899.071	16323.94
899.386	16251.17
899.7	16135.01
900.015	16097.73
900.33	15953.1
900.644	15914.23
900.959	15884.62
901.273	15910.84
901.588	15763.05
901.902	15762.37
902.216	15712.88
902.531	15683.95
902.845	15531.64
903.159	15535.26
903.473	15409.38
903.787	15388.59
904.101	15280.8
904.415	15294.81
904.729	15242.61
905.042	15186.34
905.356	15143.85
905.67	15092.33
905.984	15046.45
906.297	14977.53
906.611	14836.97
906.924	14892.79
907.237	14808.72
907.551	14801.04
907.864	14753.13
908.177	14734.6
908.491	14612.57
908.804	14497.32
909.117	14387.26
909.43	14375.96
909.743	14354.5
910.056	14340.26
910.368	14255.06
910.681	14161.05
910.994	14076.31
911.307	14134.39
911.619	13936.65
911.932	13954.73
912.244	13838.12
912.557	13859.14
912.869	13766.49
913.181	13722.42
913.494	13731.46
913.806	13552.93
914.118	13474.52
914.43	13466.84
914.742	13453.95
915.054	13362.66
915.366	13321.53
915.678	13286.73
915.99	13172.15
916.302	13134.19
916.613	13154.75
916.925	13057.58
917.236	13041.99
917.548	12917.92
917.859	12905.72
918.171	12895.32
918.482	12680.42
918.794	12726.74
919.105	12721.54
919.416	12526.75
919.727	12608.1
920.038	12530.14
920.349	12474.77
920.66	12369.46
920.971	12378.05
921.282	12329.69
921.593	12243.14
921.903	12140.77
922.214	12144.84
922.525	12057.38
922.835	12026.87
923.146	11983.94
923.456	11901.9
923.767	11842.47
924.077	11863.94
924.387	11799.76
924.697	11698.07
925.008	11642.7
925.318	11606.55
925.628	11642.48
925.938	11569.03
926.248	11418.3
926.558	11354.35
926.867	11370.62
927.177	11372.65
927.487	11219.44
927.796	11217.85
928.106	11165.65
928.416	11072.77
928.725	11105.54
929.034	11008.37
929.344	10973.12
929.653	11006.56
929.962	10797.75
930.271	10794.59
930.581	10774.25
930.89	10711.2
931.199	10626.01
931.508	10614.93
931.817	10571.09
932.125	10576.52
932.434	10483.64
932.743	10437.99
933.051	10434.15
933.36	10367.26
933.669	10223.76
933.977	10240.48
934.286	10201.38
934.594	10148.28
934.902	10128.39
935.21	10096.53
935.519	10032.8
935.827	10047.04
936.135	9947.38
936.443	9814.28
936.751	9824.67
937.059	9801.17
937.367	9768.18
937.674	9697.89
937.982	9757.78
938.29	9659.48
938.597	9700.38
938.905	9547.39
939.213	9534.74
939.52	9479.6
939.827	9569.76
940.135	9466.94
940.442	9371.8
940.749	9318.24
941.056	9327.51
941.363	9242.54
941.67	9212.71
941.977	9202.31
942.284	9098.14
942.591	9110.11
942.898	9027.86
943.205	9014.52
943.511	8922.55
943.818	8957.12
944.125	8843.45
944.431	8903.79
944.738	8824.47
945.044	8789.44
945.35	8712.16
945.657	8616.79
945.963	8651.82
946.269	8573.86
946.575	8591.48
946.881	8564.14
947.187	8522.78
947.493	8432.84
947.799	8394.43
948.105	8369.34
948.41	8369.57
948.716	8310.13
949.022	8297.71
949.327	8277.59
949.633	8163.25
949.938	8135.68
950.244	8136.13
950.549	8023.81
950.854	8034.66
951.16	8029.24
951.465	7920.77
951.77	7946.08
952.075	7967.09
952.38	7908.56
952.685	7882.8
952.99	7761.9
953.294	7753.77
953.599	7724.84
953.904	7645.75
954.209	7610.49
954.513	7652.75
954.818	7589.48
955.122	7569.82
955.426	7528.46
955.731	7461.57
956.035	7436.71
956.339	7372.76
956.643	7391.51
956.948	7365.53
957.252	7321.91
957.556	7293.89
957.86	7236.04
958.163	7216.83
958.467	7239.43
958.771	7161.92
959.075	7173.44
959.378	7052.77
959.682	7074.91
959.985	7060.68
960.289	6994.69
960.592	6919.89
960.896	6978.19
961.199	6874.92
961.502	6863.17
961.805	6799.21
962.108	6787.46
962.411	6793.79
962.714	6746.56
963.017	6651.2
963.32	6763.06
963.623	6683.74
963.926	6603.29
964.228	6598.99
964.531	6549.05
964.833	6565.32
965.136	6464.08
965.438	6485.55
965.741	6406.46
966.043	6448.49
966.345	6364.2
966.648	6342.5
966.95	6344.76
967.252	6362.62
967.554	6249.4
967.856	6222.96
968.158	6229.96
968.46	6179.12
968.761	6180.7
969.063	6175.73
969.365	6069.52
969.666	6079.46
969.968	5987.94
970.269	5998.33
970.571	6027.71
970.872	5959.91
971.174	5923.3
971.475	5852.8
971.776	5874.27
972.077	5848.5
972.378	5834.04
972.679	5849.86
972.98	5759.47
973.281	5762.63
973.582	5771.22
973.883	5697.1
974.183	5686.93
974.484	5630.66
974.785	5621.17
975.085	5594.95
975.386	5619.36
975.686	5551.34
975.986	5504.56
976.287	5520.6
976.587	5485.58
976.887	5447.61
977.187	5434.96
977.487	5450.55
977.787	5379.59
978.087	5335.75
978.387	5284
978.687	5302.08
978.987	5272.25
979.286	5271.12
979.586	5191.57
979.885	5182.08
980.185	5187.5
980.484	5127.39
980.784	5139.82
981.083	5037
981.382	5127.39
981.682	5030.45
981.981	5008.53
982.28	4993.84
982.579	4989.09
982.878	5000.17
983.177	4929.21
983.475	4924.46
983.774	4887.17
984.073	4847.4
984.372	4846.04
984.67	4862.32
984.969	4797.23
985.267	4779.61
985.566	4769.21
985.864	4746.16
986.162	4710.46
986.461	4662.09
986.759	4651.47
987.057	4631.59
987.355	4606.96
987.653	4604.02
987.951	4552.95
988.249	4575.54
988.547	4550.23
988.844	4488.09
989.142	4538.71
989.44	4469.56
989.737	4441.31
990.035	4415.55
990.332	4364.93
990.63	4380.75
990.927	4365.15
991.224	4337.36
991.521	4280.86
991.819	4283.57
992.116	4244.7
992.413	4258.72
992.71	4252.39
993.006	4239.73
993.303	4220.98
993.6	4202.45
993.897	4190.47
994.193	4183.69
994.49	4068.44
994.787	4048.78
995.083	4030.02
995.379	3999.51
995.676	4028.89
995.972	3993.64
996.268	3979.18
996.565	3989.57
996.861	3978.27
997.157	3961.32
997.453	3933.53
997.749	3883.58
998.044	3847.43
998.34	3848.11
998.636	3790.48
998.932	3782.34
999.227	3782.8
999.523	3820.31
999.818	3737.83
1000.114	3714.78
1000.409	3701.89
1000.704	3699.86
1001	3673.65
1001.295	3653.31
1001.59	3616.02
1001.885	3599.07
1002.18	3560.88
1002.475	3582.35
1002.77	3527.44
1003.065	3546.87
1003.359	3493.99
1003.654	3487.44
1003.949	3457.38
1004.243	3471.17
1004.538	3399.53
1004.832	3402.24
1005.127	3383.26
1005.421	3382.81
1005.715	3328.34
1006.009	3357.5
1006.304	3247.44
1006.598	3286.31
1006.892	3236.82
1007.186	3222.36
1007.48	3225.07
1007.773	3210.38
1008.067	3138.52
1008.361	3132.42
1008.655	3161.12
1008.948	3138.52
1009.242	3133.1
1009.535	3090.84
1009.829	3053.55
1010.122	3030.95
1010.415	3035.7
1010.708	3037.28
1011.001	3004.29
1011.295	2920.45
1011.588	2941.91
1011.881	2913.21
1012.173	2903.05
1012.466	2860.33
1012.759	2892.2
1013.052	2877.96
1013.344	2837.28
1013.637	2845.65
1013.93	2813.1
1014.222	2754.8
1014.514	2770.62
1014.807	2768.13
1015.099	2739.21
1015.391	2689.04
1015.683	2709.6
1015.976	2687.91
1016.268	2671.41
1016.56	2673.67
1016.851	2591.41
1017.143	2571.98
1017.435	2582.38
1017.727	2576.95
1018.018	2560.23
1018.31	2550.06
1018.602	2487.69
1018.893	2501.25
1019.185	2531.08
1019.476	2451.53
1019.767	2458.99
1020.058	2426.9
1020.35	2399.56
1020.641	2409.05
1020.932	2384.87
1021.223	2371.08
1021.514	2369.27
1021.804	2333.57
1022.095	2332.21
1022.386	2312.33
1022.677	2289.05
1022.967	2234.59
1023.258	2244.08
1023.548	2242.5
1023.839	2228.03
1024.129	2192.78
1024.419	2202.72
1024.709	2138.77
1025	2164.53
1025.29	2131.99
1025.58	2112.78
1025.87	2130.86
1026.16	2082.73
1026.449	2104.87
1026.739	2069.85
1027.029	2047.47
1027.319	2036.85
1027.608	2035.95
1027.898	2022.39
1028.187	2009.06
1028.477	1991.66
1028.766	1924.31
1029.055	1933.13
1029.344	1969.51
1029.634	1917.99
1029.923	1899.91
1030.212	1930.42
1030.501	1876.63
1030.79	1867.82
1031.078	1877.54
1031.367	1866.69
1031.656	1845.45
1031.945	1793.92
1032.233	1799.8
1032.522	1803.64
1032.81	1783.53
1033.099	1762.96
1033.387	1773.36
1033.675	1704.88
1033.963	1723.19
1034.251	1688.61
1034.54	1698.56
1034.828	1662.63
1035.116	1701.04
1035.403	1651.78
1035.691	1678.44
1035.979	1650.42
1036.267	1644.77
1036.554	1614.04
1036.842	1584.66
1037.129	1583.08
1037.417	1592.12
1037.704	1567.26
1037.992	1540.82
1038.279	1562.29
1038.566	1529.3
1038.853	1529.3
1039.14	1529.3
