Data from 7726_FLMS001491_001.txt Node
Date: Thu Apr 19 15:16:48 BST 2018
User: hsy
Spectrometer: FLMS00149
Trigger mode: 0
Integration Time (sec): 1.000000E-2
Scans to average: 10
Electric dark correction enabled: true
Nonlinearity correction enabled: false
Boxcar width: 0
XAxis mode: Wavelengths
Number of Pixels in Spectrum: 2048
>>>>>Begin Spectral Data<<<<<
341.393	-8.52
341.776	-8.52
342.16	-8.52
342.543	-94.16
342.927	-68.18
343.31	-49.42
343.693	-73.15
344.077	-60.49
344.46	-49.19
344.843	-53.71
345.226	-41.28
345.61	-46.48
345.993	-13.94
346.376	-29.76
346.759	4.14
347.142	29.9
347.525	33.52
347.908	45.95
348.291	93.85
348.674	106.96
349.057	103.12
349.44	115.55
349.823	142.89
350.206	158.48
350.588	212.72
350.971	233.96
351.354	251.59
351.737	263.34
352.119	273.74
352.502	284.81
352.884	270.12
353.267	311.47
353.65	300.4
354.032	315.09
354.414	330.91
354.797	335.66
355.179	340.85
355.562	344.02
355.944	354.86
356.326	347.41
356.709	348.76
357.091	363.22
357.473	390.34
357.855	375.2
358.238	374.07
358.62	362.32
359.002	357.12
359.384	356.45
359.766	368.42
360.148	374.75
360.53	381.08
360.912	375.88
361.294	366.16
361.676	337.01
362.057	364.13
362.439	371.36
362.821	384.69
363.203	386.5
363.584	365.71
363.966	357.12
364.348	365.94
364.729	353.28
365.111	341.53
365.493	361.42
365.874	336.33
366.256	374.52
366.637	340.4
367.019	361.19
367.4	350.8
367.781	333.17
368.163	350.57
368.544	344.02
368.925	358.71
369.306	365.48
369.688	375.2
370.069	337.46
370.45	334.07
370.831	370.46
371.212	366.84
371.593	376.33
371.974	378.14
372.355	367.97
372.736	359.16
373.117	368.65
373.498	348.31
373.879	363.9
374.26	368.65
374.641	367.07
375.021	366.84
375.402	387.41
375.783	393.05
376.163	407.29
376.544	396.22
376.925	386.05
377.305	408.42
377.686	392.83
378.066	391.02
378.447	388.76
378.827	385.37
379.208	387.18
379.588	378.82
379.968	374.52
380.349	397.8
380.729	385.82
381.109	407.29
381.489	414.07
381.87	394.86
382.25	407.07
382.63	406.84
383.01	408.42
383.39	428.31
383.77	431.47
384.15	417.91
384.53	417.91
384.91	426.5
385.29	435.99
385.67	433.73
386.049	433.73
386.429	459.72
386.809	439.16
387.189	435.54
387.568	452.71
387.948	432.6
388.328	462.88
388.707	454.97
389.087	466.73
389.466	478.48
389.846	457.01
390.225	446.61
390.605	471.24
390.984	463.34
391.363	472.83
391.743	456.1
392.122	486.61
392.501	478.25
392.881	492.26
393.26	477.8
393.639	525.71
394.018	503.11
394.397	522.09
394.776	515.54
395.155	523.9
395.534	505.82
395.913	525.93
396.292	520.51
396.671	547.63
397.05	534.29
397.429	538.59
397.808	540.4
398.186	541.75
398.565	550.79
398.944	534.75
399.323	536.1
399.701	558.7
400.08	566.16
400.458	549.43
400.837	563.67
401.215	563.22
401.594	547.63
401.972	573.16
402.351	570.9
402.729	577.23
403.107	563.45
403.486	570.45
403.864	603.44
404.242	584.91
404.62	618.13
404.999	628.53
405.377	619.04
405.755	643.22
406.133	642.77
406.511	635.31
406.889	640.05
407.267	657.91
407.645	643.44
408.023	641.18
408.401	681.41
408.779	685.02
409.156	692.48
409.534	663.78
409.912	714.18
410.29	696.55
410.667	677.57
411.045	712.59
411.422	704.91
411.8	715.08
412.178	721.86
412.555	753.27
412.933	739.26
413.31	749.2
413.687	787.62
414.065	772.71
414.442	784.91
414.819	781.52
415.197	819.03
415.574	803.44
415.951	814.96
416.328	806.6
416.705	811.35
417.082	792.37
417.46	804.8
417.837	837.11
418.214	835.53
418.591	849.77
418.967	845.47
419.344	864.91
419.721	883.44
420.098	856.09
420.475	884.34
420.852	843.44
421.228	883.89
421.605	916.88
421.982	918.92
422.358	910.33
422.735	926.15
423.111	915.07
423.488	937.22
423.864	929.76
424.241	973.6
424.617	975.19
424.994	973.83
425.37	994.39
425.746	970.89
426.123	983.55
426.499	976.99
426.875	1020.38
427.251	1009.54
427.627	1016.54
428.003	1023.55
428.379	1075.07
428.756	1053.6
429.132	1062.87
429.507	1088.18
429.883	1081.17
430.259	1122.75
430.635	1128.4
431.011	1134.73
431.387	1146.93
431.763	1159.59
432.138	1165.24
432.514	1208.85
432.89	1209.08
433.265	1213.82
433.641	1220.38
434.016	1212.92
434.392	1258.12
434.767	1264.9
435.143	1256.31
435.518	1294.73
435.894	1293.37
436.269	1315.74
436.644	1335.18
437.02	1332.92
437.395	1349.19
437.77	1362.29
438.145	1370.43
438.52	1382.86
438.895	1398.9
439.271	1403.65
439.646	1432.12
440.021	1433.71
440.395	1433.93
440.77	1428.28
441.145	1440.71
441.52	1470.09
441.895	1476.87
442.27	1473.25
442.645	1487.49
443.019	1499.92
443.394	1521.39
443.769	1522.29
444.143	1510.09
444.518	1531.1
444.892	1536.98
445.267	1560.03
445.641	1555.74
446.016	1559.8
446.39	1578.79
446.764	1602.97
447.139	1616.75
447.513	1589.41
447.887	1619.92
448.262	1630.76
448.636	1647.94
449.01	1681.61
449.384	1649.52
449.758	1673.7
450.132	1710.08
450.506	1706.24
450.88	1712.79
451.254	1708.5
451.628	1750.31
452.002	1776.3
452.376	1781.94
452.75	1823.98
453.123	1804.99
453.497	1838.89
453.871	1876.86
454.244	1904.88
454.618	1923.41
454.992	1962.28
455.365	1937.65
455.739	1979.45
456.112	2006.57
456.486	2026.68
456.859	2019.68
457.232	2038.66
457.606	2091.54
457.979	2108.04
458.352	2175.38
458.725	2155.27
459.099	2176.96
459.472	2242.05
459.845	2260.58
460.218	2247.92
460.591	2296.73
460.964	2324.53
461.337	2331.08
461.71	2412.66
462.083	2430.29
462.456	2424.87
462.829	2441.59
463.201	2459.67
463.574	2477.52
463.947	2533.79
464.32	2562.72
464.692	2572.66
465.065	2611.08
465.438	2628.25
465.81	2669.6
466.183	2668.7
466.555	2707.12
466.928	2763.84
467.3	2770.39
467.672	2774.91
468.045	2853.78
468.417	2840.22
468.789	2909.37
469.161	2920.45
469.534	2993.44
469.906	3022.59
470.278	3050.39
470.65	3079.54
471.022	3161.57
471.394	3186.43
471.766	3190.72
472.138	3263.71
472.51	3309.81
472.882	3359.3
473.253	3371.73
473.625	3457.15
473.997	3520.66
474.369	3555.46
474.74	3620.09
475.112	3686.53
475.484	3691.72
475.855	3797.03
476.227	3821.89
476.598	3904.37
476.97	3936.92
477.341	4002.9
477.713	4034.77
478.084	4123.13
478.455	4240.64
478.827	4295.32
479.198	4402.44
479.569	4411.71
479.94	4548.65
480.311	4601.53
480.682	4677.91
481.053	4756.56
481.424	4864.58
481.795	4905.25
482.166	5005.59
482.537	5050.11
482.908	5173.95
483.279	5284.45
483.65	5392.7
484.021	5511.56
484.391	5544.11
484.762	5589.75
485.133	5748.39
485.503	5761.05
485.874	5953.13
486.244	6017.09
486.615	6212.79
486.985	6274.03
487.356	6350.64
487.726	6418.21
488.097	6631.99
488.467	6666.79
488.837	6818.42
489.207	6927.35
489.578	7038.53
489.948	7193.55
490.318	7304.74
490.688	7333.44
491.058	7497.95
491.428	7700.66
491.798	7724.16
492.168	7924.83
492.538	8043.47
492.908	8144.49
493.278	8337.03
493.648	8386.29
494.017	8618.15
494.387	8641.43
494.757	8826.73
495.126	8928.2
495.496	9044.35
495.866	9150.79
496.235	9348.53
496.605	9496.09
496.974	9574.28
497.344	9769.08
497.713	9909.64
498.082	10063.99
498.452	10125
498.821	10267.6
499.19	10399.12
499.559	10624.42
499.928	10709.62
500.298	10827.13
500.667	11018.76
501.036	11116.61
501.405	11251.3
501.774	11419.66
502.143	11509.82
502.512	11733.77
502.88	11945.29
503.249	11978.96
503.618	12106.64
503.987	12204.04
504.356	12433.64
504.724	12588.89
505.093	12740.53
505.462	12805.84
505.83	12999.05
506.199	13087.41
506.567	13436.78
506.936	13417.12
507.304	13688.52
507.672	13795.41
508.041	13906.15
508.409	14019.59
508.777	14191.11
509.145	14518.78
509.514	14463.65
509.882	14677.65
510.25	14692.11
510.618	14970.75
510.986	14967.81
511.354	15142.72
511.722	15473.56
512.09	15523.5
512.458	15624.97
512.826	15763.27
513.193	15791.75
513.561	16035.58
513.929	16063.15
514.297	16248.91
514.664	16490.48
515.032	16567.77
515.4	16707.43
515.767	16821.55
516.135	16900.42
516.502	16878.95
516.869	17286.62
517.237	17305.6
517.604	17203.01
517.972	17587.63
518.339	17603.45
518.706	17766.84
519.073	17857.23
519.44	17902.88
519.808	18188.74
520.175	18163.89
520.542	18442.98
520.909	18491.79
521.276	18532.24
521.643	18782.18
522.009	18902.4
522.376	19016.75
522.743	19151.88
523.11	19351.65
523.477	19440.69
523.843	19522.5
524.21	19826.44
524.577	19820.79
524.943	19992.31
525.31	20049.49
525.676	20341.23
526.043	20370.16
526.409	20467.33
526.776	20646.53
527.142	20686.76
527.508	20841.33
527.874	21000.42
528.241	21107.99
528.607	21112.74
528.973	21405.38
529.339	21245.61
529.705	21537.36
530.071	21659.39
530.437	21675.88
530.803	21916.33
531.169	22019.83
531.535	21967.85
531.901	21990.9
532.267	22102.77
532.632	22286.04
532.998	22317.9
533.364	22500.04
533.73	22459.37
534.095	22606.03
534.461	22517.67
534.826	22792.01
535.192	22665.92
535.557	22810.09
535.923	22864.55
536.288	22978
536.653	22970.54
537.019	22941.39
537.384	22965.12
537.749	23102.51
538.114	23007.38
538.479	23010.99
538.845	23012.57
539.21	23047.37
539.575	23096.41
539.94	23108.16
540.305	23158.11
540.67	22973.48
541.034	23123.3
541.399	23148.39
541.764	23179.8
542.129	23205.56
542.494	23203.08
542.858	23192.23
543.223	23118.33
543.587	23287.59
543.952	23274.26
544.316	23286.01
544.681	23201.72
545.045	23382.51
545.41	23415.27
545.774	23267.26
546.138	23221.15
546.503	23394.48
546.867	23263.19
547.231	23476.74
547.595	23338.21
547.959	23503.86
548.324	23474.71
548.688	23533.92
549.052	23387.25
549.416	23365.56
549.779	23431.54
550.143	23488.72
550.507	23616.62
550.871	23591.09
551.235	23547.02
551.599	23697.53
551.962	23608.26
552.326	23650.07
552.689	23797.41
553.053	23540.92
553.417	23771.65
553.78	23986.33
554.143	23864.75
554.507	23910.85
554.87	23815.04
555.234	24087.35
555.597	23870.86
555.96	23921.02
556.323	24031.3
556.686	24032.89
557.05	24165.76
557.413	24169.15
557.776	24144.75
558.139	24288.92
558.502	24245.99
558.865	24292.77
559.228	24418.41
559.59	24468.58
559.953	24591.06
560.316	24694.11
560.679	24591.97
561.041	24713.55
561.404	24714.9
561.767	24871.28
562.129	24841.23
562.492	24958.96
562.854	25014.1
563.217	24997.61
563.579	25112.86
563.941	25201.89
564.304	25328.67
564.666	25551.72
565.028	25447.31
565.39	25513.98
565.753	25555.33
566.115	25778.6
566.477	25835.32
566.839	25806.17
567.201	26023.12
567.563	25907.41
567.925	26225.82
568.287	26156.67
568.648	26129.1
569.01	26363.22
569.372	26510.11
569.734	26465.36
570.095	26629.2
570.457	26681.85
570.819	26692.25
571.18	26814.28
571.542	26818.57
571.903	26795.98
572.265	26990.32
572.626	27020.83
572.987	26933.6
573.349	27169.98
573.71	27208.85
574.071	27236.87
574.432	27428.95
574.794	27567.71
575.155	27494.94
575.516	27356.87
575.877	27548.95
576.238	27563.41
576.599	27621.72
576.96	27619.23
577.32	27611.1
577.681	27801.37
578.042	27844.08
578.403	27790.07
578.763	27798.66
579.124	27784.88
579.485	27951.2
579.845	27994.14
580.206	27903.29
580.566	27883.86
580.927	27951.65
581.287	27965.66
581.648	27781.49
582.008	28041.37
582.368	27898.09
582.728	27948.26
583.089	27920.24
583.449	27957.98
583.809	27962.05
584.169	28056.06
584.529	27835.27
584.889	28062.84
585.249	27976.96
585.609	27669.63
585.969	27848.6
586.329	27780.13
586.688	27827.59
587.048	27756.63
587.408	27708.95
587.768	27668.72
588.127	27732.22
588.487	27617.88
588.846	27868.26
589.206	27505.79
589.565	27537.2
589.925	27686.35
590.284	27687.7
590.643	27570.87
591.003	27698.78
591.362	27703.52
591.721	27692.22
592.08	27603.19
592.44	27793.01
592.799	27689.74
593.158	27614.71
593.517	27528.61
593.876	27717.31
594.235	27505.11
594.593	27570.19
594.952	27580.59
595.311	27449.97
595.67	27534.49
596.029	27698.78
596.387	27581.49
596.746	27699.46
597.104	27442.96
597.463	27543.98
597.822	27498.78
598.18	27430.54
598.538	27449.07
598.897	27583.75
599.255	27314.15
599.613	27665.56
599.972	27583.75
600.33	27464.21
600.688	27485.22
601.046	27604.54
601.404	27708.72
601.762	27666.69
602.12	27722.51
602.478	27632.79
602.836	27679.12
603.194	27440.71
603.552	27544.21
603.91	27632.56
604.268	27670.76
604.625	27663.07
604.983	27871.88
605.341	27528.84
605.698	27761.15
606.056	27907.36
606.413	27742.17
606.771	27901.71
607.128	27858.55
607.485	27918.43
607.843	27806.8
608.2	27856.51
608.557	27890.86
608.914	27850.19
609.272	28083.85
609.629	28167.24
609.986	28138.54
610.343	28060.35
610.7	28288.37
611.057	28169.05
611.414	28091.08
611.771	28254.24
612.127	28459.89
612.484	28414.69
612.841	28369.72
613.198	28241.14
613.554	28241.14
613.911	28409.95
614.267	28356.84
614.624	28446.78
614.98	28509.15
615.337	28629.37
615.693	28534.01
616.05	28673.44
616.406	28808.8
616.762	28748.69
617.118	28667.79
617.475	28634.12
617.831	28788.92
618.187	28856.71
618.543	28874.79
618.899	29029.14
619.255	28944.39
619.611	28803.16
619.967	29120.43
620.323	29021.23
620.678	29042.24
621.034	28962.47
621.39	28933.55
621.746	28971.06
622.101	29301
622.457	28984.62
622.812	29147.1
623.168	29178.51
623.523	29207.44
623.879	29116.82
624.234	28990.95
624.589	29193.88
624.945	29218.06
625.3	29281.79
625.655	29247.66
626.01	29291.96
626.365	29265.52
626.72	29180.55
627.075	29022.13
627.43	29262.8
627.785	29233.65
628.14	29199.75
628.495	29267.1
628.85	29130.83
629.205	29112.98
629.559	29141.68
629.914	29157.72
630.269	29131.06
630.623	29028.69
630.978	29009.93
631.332	29183.48
631.687	29106.2
632.041	28956.15
632.396	28980.1
632.75	28850.84
633.104	28980.78
633.459	28847.67
633.813	28805.87
634.167	28808.8
634.521	28805.87
634.875	28887.9
635.229	28700.78
635.583	28514.8
635.937	28534.01
636.291	28583.5
636.645	28583.05
636.999	28463.95
637.352	28615.59
637.706	28366.56
638.06	28473.45
638.413	28306.67
638.767	28313.9
639.121	28378.99
639.474	28111.65
639.828	28204.98
640.181	28151.19
640.534	28161.14
640.888	28079.11
641.241	28033.68
641.594	28018.54
641.947	28238.65
642.301	27954.82
642.654	27897.42
643.007	27884.08
643.36	27957.3
643.713	27709.17
644.066	28029.84
644.419	27770.64
644.771	27424.89
645.124	27282.52
645.477	27197.1
645.83	27250.43
646.182	27216.3
646.535	27188.28
646.888	27172.69
647.24	27106.93
647.593	27263.53
647.945	27218.34
648.298	26985.35
648.65	27046.37
649.002	26640.27
649.355	26688.41
649.707	26464.01
650.059	26378.36
650.411	26795.3
650.763	27054.5
651.115	27622.62
651.467	27513.25
651.819	27532.68
652.171	27358
652.523	27307.83
652.875	27494.71
653.227	27259.47
653.578	27505.34
653.93	27478.44
654.282	27341.5
654.633	27366.58
654.985	27385.11
655.337	27274.16
655.688	27298.79
656.039	27371.55
656.391	27165.23
656.742	27158.68
657.094	27173.14
657.445	27270.09
657.796	27422.4
658.147	27210.43
658.498	27335.17
658.849	27322.29
659.2	27126.81
659.551	27167.27
659.902	27385.34
660.253	27338.33
660.604	27388.73
660.955	27117.1
661.306	27395.06
661.656	27298.34
662.007	27253.82
662.358	27239.13
662.708	27311.67
663.059	27247.72
663.409	27112.13
663.76	27167.27
664.11	27210.65
664.461	27290.65
664.811	27254.5
665.161	27259.01
665.511	27212.69
665.862	27366.81
666.212	27329.52
666.562	27398.45
666.912	27296.08
667.262	27213.14
667.612	27256.08
667.962	27315.51
668.312	27160.03
668.662	27371.78
669.011	27337.43
669.361	27265.79
669.711	27416.07
670.06	27246.36
670.41	27130.43
670.76	27159.36
671.109	27257.66
671.459	27218.56
671.808	27379.69
672.157	27237.32
672.507	26947.16
672.856	27128.4
673.205	27142.63
673.554	27248.85
673.904	26971.11
674.253	27331.78
674.602	27164.78
674.951	26753.94
675.3	26548.07
675.649	27188.06
675.998	27161.62
676.346	27054.73
676.695	27154.38
677.044	26935.86
677.393	27006.82
677.741	27114.61
678.09	26916.2
678.438	26920.49
678.787	26980.6
679.135	26818.8
679.484	26744.45
679.832	26934.96
680.181	26756.66
680.529	26763.21
680.877	26706.94
681.225	26584.46
681.573	26970.66
681.922	26556.43
682.27	26472.59
682.618	26478.24
682.966	26390.79
683.314	26500.39
683.661	26309.89
684.009	26271.47
684.357	26141.08
684.705	26155.54
685.053	26250.23
685.4	26131.36
685.748	25989.22
686.095	26006.17
686.443	25836.91
686.79	25845.49
687.138	25951.7
687.485	25866.51
687.832	25634.88
688.18	25677.81
688.527	25487.08
688.874	25476.91
689.221	25498.16
689.568	25297.03
689.915	25270.59
690.262	25375.9
690.609	25232.63
690.956	25282.34
691.303	25056.81
691.65	24997.83
691.997	24941.79
692.344	24790.15
692.69	24773.66
693.037	24736.82
693.383	24464.51
693.73	24609.14
694.077	24452.99
694.423	24370.5
694.769	24327.34
695.116	24215.71
695.462	24086.22
695.808	24050.51
696.155	24048.93
696.501	23847.81
696.847	23889.84
697.193	23779.11
697.539	23784.98
697.885	23475.84
698.231	23511.54
698.577	23359.91
698.923	23423.64
699.269	23321.72
699.614	23217.77
699.96	23081.5
700.306	23098.22
700.651	22969.18
700.997	22814.16
701.342	22794.5
701.688	22738.91
702.033	22717.21
702.379	22623.88
702.724	22467.73
703.069	22566.26
703.415	22232.48
703.76	22189.32
704.105	22313.83
704.45	22086.04
704.795	22080.39
705.14	22086.27
705.485	21958.36
705.83	21796.56
706.175	21944.13
706.52	21785.94
706.865	21845.37
707.209	21724.02
707.554	21684.92
707.899	21639.05
708.243	21496
708.588	21512.5
708.932	21322.45
709.277	21474.99
709.621	21249
709.966	21103.02
710.31	21182.79
710.654	21059.4
710.998	21060.31
711.342	21129.01
711.687	21006.75
712.031	20903.02
712.375	20892.18
712.719	20869.35
713.063	20847.66
713.407	20942.34
713.75	20833.65
714.094	20821.44
714.438	20605.18
714.782	20633.2
715.125	20665.52
715.469	20658.28
715.812	20581.45
716.156	20570.15
716.499	20525.86
716.843	20559.3
717.186	20509.36
717.53	20562.02
717.873	20497.38
718.216	20444.05
718.559	20384.39
718.902	20181.69
719.246	20267.79
719.589	20231.4
719.932	20098.98
720.275	20046.1
720.617	20170.61
720.96	20037.06
721.303	20053.78
721.646	20092.65
721.989	19950.73
722.331	20105.53
722.674	19949.38
723.016	20016.04
723.359	19880.9
723.701	19998.64
724.044	19837.74
724.386	19879.77
724.729	19962.71
725.071	20046.1
725.413	19930.39
725.755	19808.59
726.097	19765.88
726.439	19770.62
726.782	19758.2
727.124	19830.28
727.465	19782.15
727.807	19758.42
728.149	19773.34
728.491	19711.64
728.833	19832.32
729.175	19659.89
729.516	19687.24
729.858	19675.26
730.199	19721.13
730.541	19756.61
730.882	19652.89
731.224	19734.69
731.565	19707.8
731.906	19732.66
732.248	19798.65
732.589	19639.33
732.93	19577.41
733.271	19570.18
733.612	19652.44
733.953	19756.16
734.294	19638.65
734.635	19640.01
734.976	19661.7
735.317	19654.02
735.658	19566.11
735.999	19683.62
736.339	19673.9
736.68	19712.55
737.021	19734.24
737.361	19817.18
737.702	19853.79
738.042	19778.31
738.383	19891.3
738.723	19840.45
739.063	19783.05
739.404	20006.55
739.744	19885.88
740.084	19910.73
740.424	19918.87
740.764	19967.68
741.104	20166.77
741.444	19986.66
741.784	20054.46
742.124	20140.78
742.464	20045.65
742.804	20176.72
743.143	20128.13
743.483	20326.99
743.823	20211.06
744.162	20280.67
744.502	20348.01
744.841	20376.94
745.181	20583.71
745.52	20587.33
745.86	20658.06
746.199	20611.73
746.538	20746.87
746.877	20868.67
747.216	20926.75
747.556	20867.54
747.895	21012.85
748.234	21091.49
748.573	21169.01
748.911	21132.62
749.25	21385.27
749.589	21305.95
749.928	21391.82
750.267	21732.61
750.605	21660.97
750.944	21687.86
751.283	21933.96
751.621	22117.68
751.96	21987.52
752.298	22251.24
752.636	22293.04
752.975	22393.38
753.313	22466.37
753.651	22699.59
753.989	22793.6
754.327	22846.02
754.666	22841.05
755.004	23150.2
755.342	23201.72
755.679	23394.48
756.017	23220.7
756.355	23551.09
756.693	23598.09
757.031	23873.34
757.368	23832.89
757.706	23968.93
758.044	23968.03
758.381	24107.46
758.719	24106.33
759.056	24355.36
759.394	24420.67
759.731	24242.15
760.068	24562.14
760.405	24670.16
760.743	24649.37
761.08	24904.05
761.417	24975.91
761.754	25067.43
762.091	25106.76
762.428	25063.82
762.765	25113.53
763.102	25365.96
763.438	25375.67
763.775	25293.42
764.112	25540.87
764.449	25410.02
764.785	25515.56
765.122	25445.5
765.458	25477.59
765.795	25451.38
766.131	25612.05
766.467	25650.47
766.804	25583.13
767.14	25658.83
767.476	25672.84
767.812	25683.01
768.148	25750.81
768.485	25720.75
768.821	25751.48
769.157	25650.92
769.492	25755.55
769.828	25706.74
770.164	25623.8
770.5	25646.63
770.836	25716
771.171	25651.37
771.507	25593.07
771.842	25490.47
772.178	25614.99
772.513	25474.66
772.849	25465.84
773.184	25682.56
773.519	25451.83
773.855	25411.15
774.19	25468.1
774.525	25390.82
774.86	25402.11
775.195	25369.8
775.53	25222.23
775.865	25268.56
776.2	25069.92
776.535	24947.66
776.87	24924.16
777.205	24836.93
777.539	24886.2
777.874	24843.71
778.209	24710.61
778.543	24731.62
778.878	24619.31
779.212	24667.9
779.547	24519.88
779.881	24455.92
780.215	24293.9
780.55	24446.21
780.884	24269.49
781.218	24165.76
781.552	24299.32
781.886	24191.07
782.22	24075.82
782.554	23995.15
782.888	23708.37
783.222	23802.61
783.556	23657.53
783.889	23700.46
784.223	23485.55
784.557	23477.19
784.89	23569.17
785.224	23472
785.557	23316.29
785.891	23336.86
786.224	23337.99
786.558	23229.06
786.891	23088.96
787.224	22913.14
787.557	22905.01
787.891	22925.57
788.224	22739.59
788.557	22699.36
788.89	22695.07
789.223	22609.42
789.556	22427.5
789.888	22511.57
790.221	22403.1
790.554	22248.3
790.887	22339.82
791.219	22160.17
791.552	22174.18
791.884	22121.07
792.217	22125.36
792.549	21925.37
792.882	21746.84
793.214	21654.19
793.546	21687.41
793.879	21623
794.211	21527.41
794.543	21587.75
794.875	21500.97
795.207	21525.15
795.539	21374.88
795.871	21380.3
796.203	21288.55
796.535	21026.41
796.867	21156.35
797.198	20975.34
797.53	21033.87
797.862	20832.74
798.193	20856.47
798.525	20706.19
798.856	20840.2
799.188	20614.67
799.519	20575.8
799.85	20496.93
800.182	20526.08
800.513	20487.44
800.844	20350.04
801.175	20424.84
801.506	20369.03
801.837	20215.36
802.168	20191.18
802.499	20238.63
802.83	19999.09
803.161	19924.07
803.491	20038.19
803.822	20022.59
804.153	19878.19
804.483	19751.87
804.814	19629.16
805.145	19721.59
805.475	19608.14
805.805	19627.58
806.136	19614.7
806.466	19562.49
806.796	19617.41
807.126	19351.2
807.457	19474.81
807.787	19301.94
808.117	19316.17
808.447	19367.24
808.777	19294.93
809.107	19107.82
809.436	19056.74
809.766	19089.06
810.096	19098.55
810.426	19027.82
810.755	19066.46
811.085	18979.01
811.414	18982.4
811.744	18871.66
812.073	18760.93
812.403	18748.73
812.732	18678
813.061	18744.21
813.39	18605.46
813.719	18578.57
814.049	18700.37
814.378	18677.09
814.707	18570.88
815.036	18516.65
815.365	18386.25
815.693	18294.28
816.022	18383.09
816.351	18274.39
816.68	18171.34
817.008	18301.74
817.337	18087.96
817.665	18044.79
817.994	18117.11
818.322	18192.81
818.651	18072.59
818.979	18047.96
819.307	17935.64
819.636	17964.34
819.964	17930.67
820.292	17984.68
820.62	17895.19
820.948	18021.74
821.276	17977.45
821.604	17913.95
821.932	17993.72
822.259	18040.95
822.587	17928.86
822.915	17859.49
823.243	17960.95
823.57	17885.48
823.898	17998.24
824.225	17957.56
824.553	17923.89
824.88	17875.76
825.207	17899.04
825.535	17862.2
825.862	17944.68
826.189	17946.72
826.516	17957.56
826.843	18033.27
827.17	18028.3
827.497	17941.52
827.824	17896.1
828.151	18052.7
828.478	17962.08
828.805	17940.62
829.131	17994.17
829.458	18021.97
829.785	17840.05
830.111	18020.84
830.438	18019.48
830.764	17920.96
831.09	17923.22
831.417	17861.97
831.743	17975.64
832.069	17990.11
832.395	17860.17
832.722	17979.94
833.048	17903.1
833.374	17924.8
833.7	17854.97
834.026	17872.6
834.351	17915.31
834.677	17993.04
835.003	17870.11
835.329	17874.85
835.654	17937
835.98	17661.3
836.306	17887.74
836.631	17677.12
836.956	17947.4
837.282	17882.09
837.607	17731.81
837.932	17652.94
838.258	17662.43
838.583	17753.05
838.908	17718.47
839.233	17638.93
839.558	17538.14
839.883	17679.83
840.208	17489.1
840.533	17589.21
840.858	17549.67
841.182	17460.63
841.507	17410.69
841.832	17367.98
842.156	17451.14
842.481	17301.08
842.805	17324.81
843.13	17212.73
843.454	17284.36
843.778	17111.03
844.103	17195.1
844.427	17127.53
844.751	17105.61
845.075	17004.6
845.399	17000.75
845.723	16900.42
846.047	16996.23
846.371	16804.15
846.695	16758.27
847.019	16596.47
847.343	16629.01
847.666	16592.63
847.99	16485.96
848.313	16390.6
848.637	16381.11
848.96	16352.63
849.284	16445.29
849.607	16276.03
849.931	16184.28
850.254	16044.17
850.577	16007.79
850.9	15854.12
851.223	15944.96
851.546	15798.53
851.869	15837.85
852.192	15837.62
852.515	15642.37
852.838	15620.9
853.161	15533
853.483	15432.43
853.806	15422.26
854.129	15375.26
854.451	15346.33
854.774	15189.95
855.096	15273.57
855.419	15175.49
855.741	15186.56
856.063	15049.17
856.385	15003.97
856.708	14957.64
857.03	14974.37
857.352	14992.9
857.674	14963.07
857.996	14881.71
858.318	14705.9
858.64	14696.63
858.961	14765.33
859.283	14674.26
859.605	14599.23
859.926	14561.95
860.248	14523.08
860.57	14520.59
860.891	14563.08
861.212	14522.63
861.534	14340.26
861.855	14299.36
862.176	14342.29
862.498	14268.17
862.819	14223.65
863.14	14289.19
863.461	14259.36
863.782	14136.42
864.103	14228.62
864.424	14128.29
864.745	14143.88
865.065	14064.33
865.386	14029.53
865.707	14105.24
866.027	14095.75
866.348	14024.11
866.668	13952.47
866.989	13955.86
867.309	13909.99
867.63	13875.86
867.95	13862.98
868.27	13844.23
868.59	13880.38
868.91	13753.16
869.23	13781.86
869.55	13688.52
869.87	13809.65
870.19	13651.01
870.51	13723.78
870.83	13727.62
871.15	13549.54
871.469	13576.66
871.789	13647.4
872.109	13609.88
872.428	13537.57
872.748	13504.12
873.067	13519.49
873.386	13534.18
873.706	13445.14
874.025	13438.14
874.344	13323.34
874.663	13383
874.982	13436.78
875.301	13376.22
875.62	13326.73
875.939	13336.67
876.258	13357.46
876.577	13216.22
876.896	13254.86
877.214	13208.08
877.533	13221.87
877.852	13230.23
878.17	13196.79
878.489	13241.08
878.807	13188.65
879.125	13182.77
879.444	13079.27
879.762	12986.85
880.08	13036.11
880.398	12987.07
880.716	13031.82
881.034	12997.69
881.352	13028.2
881.67	12868.66
881.988	12910.47
882.306	12832.28
882.624	12834.31
882.941	12773.75
883.259	12798.6
883.577	12729.91
883.894	12717.93
884.212	12677.93
884.529	12690.58
884.846	12682
885.164	12570.59
885.481	12617.82
885.798	12622.56
886.115	12514.09
886.432	12579.17
886.75	12532.85
887.067	12516.58
887.383	12472.06
887.7	12416.24
888.017	12359.07
888.334	12371.27
888.651	12344.15
888.967	12279.97
889.284	12202.91
889.6	12171.95
889.917	12109.81
890.233	12104.84
890.55	12095.12
890.866	12049.25
891.182	11996.59
891.498	11951.39
891.815	11936.25
892.131	11900.1
892.447	11906.65
892.763	11816.94
893.079	11782.81
893.395	11736.03
893.71	11798.86
894.026	11629.82
894.342	11692.42
894.657	11654.45
894.973	11550.28
895.289	11582.14
895.604	11563.38
895.92	11440.67
896.235	11381.69
896.55	11455.14
896.865	11410.62
897.181	11361.13
897.496	11363.39
897.811	11373.33
898.126	11200.45
898.441	11243.62
898.756	11218.76
899.071	11171.53
899.386	11209.27
899.7	11104.41
900.015	11054.47
900.33	10903.96
900.644	10875.72
900.959	10895.38
901.273	10917.98
901.588	10826.23
901.902	10799.79
902.216	10741.94
902.531	10727.7
902.845	10645.44
903.159	10660.81
903.473	10638.66
903.787	10549.62
904.101	10487.25
904.415	10459.46
904.729	10449.29
905.042	10377.88
905.356	10278.67
905.67	10298.1
905.984	10307.6
906.297	10267.37
906.611	10138.56
906.924	10190.99
907.237	10161.84
907.551	10066.7
907.864	10034.16
908.177	10040.03
908.491	10002.29
908.804	9951.22
909.117	9857.21
909.43	9828.51
909.743	9759.14
910.056	9805.69
910.368	9724.11
910.681	9706.48
910.994	9650.44
911.307	9584.23
911.619	9607.05
911.932	9602.98
912.244	9487.28
912.557	9563.89
912.869	9398.47
913.181	9347.62
913.494	9427.17
913.806	9306.49
914.118	9289.54
914.43	9223.78
914.742	9202.99
915.054	9214.52
915.366	9129.55
915.678	9052.71
915.99	9093.39
916.302	8963.22
916.613	9004.13
916.925	8968.42
917.236	8943.11
917.548	8839.39
917.859	8795.09
918.171	8872.38
918.482	8710.8
918.794	8727.52
919.105	8707.41
919.416	8620.63
919.727	8680.29
920.038	8535.44
920.349	8468.32
920.66	8472.84
920.971	8462.9
921.282	8448.21
921.593	8423.8
921.903	8354.2
922.214	8318.72
922.525	8332.73
922.835	8284.6
923.146	8193.3
923.456	8218.84
923.767	8125.28
924.077	8139.29
924.387	8158.73
924.697	8071.5
925.008	8040.31
925.318	7973.42
925.628	7949.92
925.938	7969.58
926.248	7899.75
926.558	7845.51
926.867	7852.75
927.177	7746.76
927.487	7759.87
927.796	7717.16
928.106	7685.97
928.416	7662.92
928.725	7609.14
929.034	7632.19
929.344	7566.2
929.653	7542.47
929.962	7436.94
930.271	7419.08
930.581	7431.51
930.89	7361.46
931.199	7350.84
931.508	7308.35
931.817	7300.67
932.125	7313.32
932.434	7239.65
932.743	7200.11
933.051	7132.09
933.36	7163.27
933.669	7137.74
933.977	7119.66
934.286	7078.53
934.594	7022.26
934.902	7030.62
935.21	6961.92
935.519	6933.67
935.827	6886.22
936.135	6895.26
936.443	6820.91
936.751	6798.08
937.059	6817.74
937.367	6732.32
937.674	6717.18
937.982	6765.99
938.29	6743.17
938.597	6665.43
938.905	6656.62
939.213	6577.52
939.52	6560.12
939.827	6555.38
940.135	6534.59
940.442	6524.64
940.749	6503.63
941.056	6492.33
941.363	6334.59
941.67	6408.94
941.977	6361.94
942.284	6325.33
942.591	6264.09
942.898	6271.77
943.205	6265.89
943.511	6199.68
943.818	6175.95
944.125	6141.83
944.431	6113.81
944.738	6165.11
945.044	6045.56
945.35	6038.1
945.657	6041.49
945.963	6001.49
946.269	6021.61
946.575	5991.33
946.881	5931.21
947.187	5940.93
947.493	5890.76
947.799	5872.23
948.105	5806.7
948.41	5738.9
948.716	5810.31
949.022	5757.89
949.327	5725.8
949.633	5648.51
949.938	5657.55
950.244	5655.29
950.549	5613.48
950.854	5609.64
951.16	5588.62
951.465	5557.89
951.77	5473.82
952.075	5501.62
952.38	5505.69
952.685	5502.52
952.99	5473.6
953.294	5448.06
953.599	5437.44
953.904	5401.74
954.209	5322.64
954.513	5327.61
954.818	5277.22
955.122	5259.14
955.426	5210.33
955.731	5206.71
956.035	5184.57
956.339	5168.75
956.643	5181.86
956.948	5163.32
957.252	5096.66
957.556	5076.55
957.86	5096.21
958.163	5070.22
958.467	5032.93
958.771	5013.5
959.075	4981.41
959.378	4971.47
959.682	4935.53
959.985	4928.98
960.289	4882.65
960.592	4870
960.896	4908.64
961.199	4830.23
961.502	4829.55
961.805	4789.78
962.108	4800.17
962.411	4743
962.714	4728.99
963.017	4721.75
963.32	4722.66
963.623	4682.43
963.926	4647.41
964.228	4601.53
964.531	4666.39
964.833	4620.74
965.136	4583.68
965.438	4589.78
965.741	4558.82
966.043	4503.91
966.345	4477.92
966.648	4468.2
966.95	4443.57
967.252	4441.99
967.554	4408.09
967.856	4425.72
968.158	4364.48
968.46	4370.58
968.761	4371.26
969.063	4309.34
969.365	4296.68
969.666	4307.53
969.968	4237.25
970.269	4250.81
970.571	4253.74
970.872	4216
971.174	4230.24
971.475	4197.47
971.776	4180.53
972.077	4162.9
972.378	4136.01
972.679	4115.44
972.98	4104.6
973.281	4089.23
973.582	4067.53
973.883	4026.86
974.183	3995.9
974.484	4010.59
974.785	3965.39
975.085	3990.47
975.386	3937.82
975.686	3915
975.986	3919.74
976.287	3912.74
976.587	3851.04
976.887	3841.1
977.187	3803.81
977.487	3882.45
977.787	3820.31
978.087	3795.9
978.387	3758.84
978.687	3745.96
978.987	3736.92
979.286	3704.38
979.586	3701.22
979.885	3730.82
980.185	3715.68
980.484	3637.49
980.784	3663.48
981.083	3618.51
981.382	3636.13
981.682	3625.29
981.981	3614.89
982.28	3563.59
982.579	3527.89
982.878	3544.61
983.177	3520.2
983.475	3529.02
983.774	3501.45
984.073	3481.34
984.372	3448.57
984.67	3442.47
984.969	3441.56
985.267	3445.63
985.566	3406.31
985.864	3366.08
986.162	3338.74
986.461	3360.21
986.759	3319.31
987.057	3286.31
987.355	3270.95
987.653	3312.07
987.951	3265.97
988.249	3259.42
988.547	3237.5
988.844	3218.29
989.142	3180.78
989.44	3208.8
989.737	3199.53
990.035	3127.45
990.332	3156.37
990.63	3115.02
990.927	3147.56
991.224	3113.44
991.521	3066.2
991.819	3102.59
992.116	3057.17
992.413	3064.85
992.71	3020.33
993.006	3014.68
993.303	2992.31
993.6	2988.47
993.897	2990.95
994.193	2978.52
994.49	2912.99
994.787	2954.34
995.083	2888.58
995.379	2909.6
995.676	2904.4
995.972	2865.76
996.268	2836.83
996.565	2844.74
996.861	2824.86
997.157	2816.72
997.453	2780.34
997.749	2755.7
998.044	2733.56
998.34	2761.81
998.636	2734.69
998.932	2756.61
999.227	2711.41
999.523	2726.78
999.818	2679.1
1000.114	2655.59
1000.409	2655.14
1000.704	2642.94
1001	2630.51
1001.295	2621.02
1001.59	2609.72
1001.885	2595.03
1002.18	2574.24
1002.475	2533.56
1002.77	2541.02
1003.065	2540.12
1003.359	2515.48
1003.654	2528.14
1003.949	2466.22
1004.243	2508.03
1004.538	2463.73
1004.832	2450.18
1005.127	2433.68
1005.421	2402.72
1005.715	2406.11
1006.009	2401.59
1006.304	2413.79
1006.598	2372.66
1006.892	2349.61
1007.186	2328.14
1007.48	2327.02
1007.773	2335.15
1008.067	2326.56
1008.361	2269.62
1008.655	2244.76
1008.948	2235.27
1009.242	2250.18
1009.535	2199.56
1009.829	2219.22
1010.122	2209.5
1010.415	2201.37
1010.708	2191.43
1011.001	2184.65
1011.295	2162.5
1011.588	2137.19
1011.881	2123.4
1012.173	2126.79
1012.466	2117.53
1012.759	2092.44
1013.052	2102.61
1013.344	2098.09
1013.637	2064.42
1013.93	2049.73
1014.222	2022.16
1014.514	2011.54
1014.807	1999.11
1015.099	2008.15
1015.391	1986.91
1015.683	1989.17
1015.976	1956.63
1016.268	1955.05
1016.56	1941.71
1016.851	1929.51
1017.143	1906.24
1017.435	1896.97
1017.727	1877.99
1018.018	1882.06
1018.31	1849.29
1018.602	1849.06
1018.893	1817.65
1019.185	1822.17
1019.476	1847.48
1019.767	1809.29
1020.058	1774.49
1020.35	1805.22
1020.641	1777.65
1020.932	1729.74
1021.223	1788.5
1021.514	1730.65
1021.804	1753.02
1022.095	1728.39
1022.386	1692.68
1022.677	1683.87
1022.967	1699.91
1023.258	1680.03
1023.548	1661.95
1023.839	1636.64
1024.129	1616.75
1024.419	1605.68
1024.709	1623.3
1025	1607.26
1025.29	1598.45
1025.58	1576.53
1025.87	1550.99
1026.16	1543.76
1026.449	1553.7
1026.739	1524.78
1027.029	1530.43
1027.319	1520.48
1027.608	1503.31
1027.898	1510.54
1028.187	1489.97
1028.477	1468.51
1028.766	1467.15
1029.055	1448.62
1029.344	1442.29
1029.634	1434.61
1029.923	1415.85
1030.212	1421.95
1030.501	1396.64
1030.79	1406.36
1031.078	1405.01
1031.367	1382.18
1031.656	1374.05
1031.945	1366.14
1032.233	1361.62
1032.522	1354.61
1032.81	1329.53
1033.099	1315.29
1033.387	1292.01
1033.675	1314.61
1033.963	1281.17
1034.251	1304.44
1034.54	1280.71
1034.828	1285.01
1035.116	1254.27
1035.403	1285.69
1035.691	1238.91
1035.979	1237.1
1036.267	1211.11
1036.554	1223.09
1036.842	1210.89
1037.129	1230.77
1037.417	1219.25
1037.704	1223.99
1037.992	1190.32
1038.279	1183.77
1038.566	1155.97
1038.853	1155.97
1039.14	1155.97
