Data from 7726_FLMS001491_010.txt Node
Date: Thu Apr 19 15:17:23 BST 2018
User: hsy
Spectrometer: FLMS00149
Trigger mode: 0
Integration Time (sec): 1.000000E-2
Scans to average: 10
Electric dark correction enabled: true
Nonlinearity correction enabled: false
Boxcar width: 0
XAxis mode: Wavelengths
Number of Pixels in Spectrum: 2048
>>>>>Begin Spectral Data<<<<<
341.393	-8.02
341.776	-8.02
342.16	-8.02
342.543	-55.93
342.927	-65.87
343.31	-54.35
343.693	-71.98
344.077	-52.99
344.46	-77.85
344.843	-38.08
345.226	-42.37
345.61	-41.92
345.993	-9.15
346.376	-1.69
346.759	6.44
347.142	8.7
347.525	49.15
347.908	45.76
348.291	77.17
348.674	88.92
349.057	114.23
349.44	111.52
349.823	128.7
350.206	160.56
350.588	209.6
350.971	225.64
351.354	255.7
351.737	262.03
352.119	267.9
352.502	290.05
352.884	284.85
353.267	296.6
353.65	306.77
354.032	319.88
354.414	320.1
354.797	345.87
355.179	334.12
355.562	359.2
355.944	349.26
356.326	365.75
356.709	359.2
357.091	363.49
357.473	364.62
357.855	369.37
358.238	373.44
358.62	394
359.002	362.14
359.384	378.18
359.766	362.82
360.148	381.12
360.53	358.75
360.912	379.76
361.294	360.56
361.676	351.97
362.057	383.38
362.439	372.76
362.821	359.43
363.203	363.27
363.584	356.04
363.966	359.2
364.348	366.88
364.729	353.1
365.111	368.01
365.493	356.49
365.874	378.63
366.256	361.46
366.637	349.48
367.019	366.21
367.4	375.24
367.781	349.26
368.163	351.74
368.544	363.95
368.925	364.85
369.306	377.73
369.688	342.48
370.069	374.34
370.45	363.49
370.831	369.82
371.212	355.58
371.593	356.94
371.974	368.01
372.355	381.35
372.736	383.83
373.117	389.48
373.498	363.27
373.879	359.43
374.26	370.95
374.641	360.1
375.021	375.47
375.402	380.44
375.783	381.8
376.163	418.41
376.544	394.23
376.925	398.75
377.305	397.16
377.686	395.81
378.066	423.83
378.447	396.03
378.827	406.66
379.208	389.03
379.588	401.23
379.968	417.5
380.349	399.2
380.729	419.54
381.109	398.07
381.489	418.41
381.87	423.6
382.25	398.75
382.63	404.62
383.01	414.57
383.39	404.85
383.77	441.23
384.15	438.07
384.53	442.59
384.91	439.2
385.29	443.27
385.67	449.37
386.049	459.99
386.429	452.76
386.809	461.8
387.189	459.31
387.568	463.38
387.948	467.22
388.328	450.27
388.707	471.29
389.087	460.44
389.466	499.08
389.846	483.94
390.225	477.84
390.605	495.69
390.984	492.53
391.363	483.26
391.743	502.02
392.122	509.48
392.501	510.83
392.881	522.81
393.26	530.49
393.639	519.2
394.018	507.67
394.397	514
394.776	508.57
395.155	522.81
395.534	544.51
395.913	542.25
396.292	556.03
396.671	558.29
397.05	559.42
397.429	541.57
397.808	561
398.186	533.88
398.565	556.26
398.944	559.42
399.323	558.74
399.701	561.45
400.08	563.26
400.458	581.11
400.837	590.83
401.215	591.28
401.594	604.62
401.972	591.06
402.351	587.44
402.729	597.84
403.107	586.99
403.486	593.77
403.864	611.4
404.242	630.38
404.62	615.01
404.999	638.97
405.377	648.68
405.755	643.71
406.133	652.3
406.511	660.21
406.889	657.5
407.267	664.28
407.645	672.64
408.023	694.11
408.401	709.47
408.779	692.3
409.156	695.24
409.534	702.47
409.912	733.2
410.29	738.4
410.667	737.04
411.045	730.04
411.422	745.86
411.8	730.94
412.178	766.19
412.555	774.33
412.933	782.92
413.31	823.59
413.687	806.19
414.065	797.61
414.442	796.7
414.819	835.57
415.197	807.55
415.574	831.96
415.951	836.48
416.328	848.9
416.705	856.59
417.082	862.69
417.46	873.99
417.837	887.1
418.214	872.63
418.591	884.84
418.967	897.49
419.344	900.43
419.721	925.06
420.098	925.51
420.475	930.26
420.852	914.89
421.228	945.62
421.605	943.37
421.982	941.78
422.358	972.97
422.735	972.52
423.111	969.58
423.488	982.23
423.864	1001.22
424.241	1025.17
424.617	1014.55
424.994	1007.77
425.37	999.41
425.746	1043.93
426.123	1034.44
426.499	1031.95
426.875	1049.58
427.251	1067.2
427.627	1079.18
428.003	1111.04
428.379	1106.98
428.756	1126.41
429.132	1136.58
429.507	1164.15
429.883	1143.13
430.259	1173.64
430.635	1180.42
431.011	1195.34
431.387	1218.84
431.763	1226.07
432.138	1249.12
432.514	1231.27
432.89	1254.09
433.265	1277.59
433.641	1295.45
434.016	1296.8
434.392	1339.74
434.767	1330.7
435.143	1361.66
435.518	1357.14
435.894	1405.05
436.269	1412.96
436.644	1454.54
437.02	1440.3
437.395	1440.75
437.77	1448.89
438.145	1487.98
438.52	1443.24
438.895	1506.06
439.271	1487.76
439.646	1538.6
440.021	1537.7
440.395	1535.44
440.77	1521.2
441.145	1562.56
441.52	1588.32
441.895	1550.81
442.27	1595.78
442.645	1555.1
443.019	1593.74
443.394	1602.1
443.769	1607.53
444.143	1611.6
444.518	1665.38
444.892	1671.71
445.267	1685.04
445.641	1657.24
446.016	1675.78
446.39	1691.59
446.764	1692.05
447.139	1703.8
447.513	1726.85
447.887	1751.48
448.262	1738.37
448.636	1721.42
449.01	1748.99
449.384	1791.25
449.758	1828.77
450.132	1823.12
450.506	1830.35
450.88	1828.99
451.254	1835.09
451.628	1881.19
452.002	1920.06
452.376	1918.93
452.75	1950.8
453.123	1934.98
453.497	1958.71
453.871	1958.48
454.244	1999.61
454.618	2073.5
454.992	2076.44
455.365	2071.02
455.739	2144.69
456.112	2139.04
456.486	2163.9
456.859	2190.34
457.232	2230.34
457.606	2258.58
457.979	2312.14
458.352	2306.94
458.725	2325.25
459.099	2335.64
459.472	2387.17
459.845	2404.8
460.218	2442.76
460.591	2476.66
460.964	2462.42
461.337	2522.53
461.71	2568.63
462.083	2588.07
462.456	2598.01
462.829	2626.48
463.201	2683.88
463.574	2621.51
463.947	2706.26
464.32	2783.09
464.692	2823.77
465.065	2790.55
465.438	2838.91
465.81	2861.73
466.183	2861.28
466.555	2943.54
466.928	2953.93
467.3	2969.07
467.672	3041.61
468.045	3139.92
468.417	3078.9
468.789	3106.02
469.161	3162.29
469.534	3247.71
469.906	3256.75
470.278	3273.25
470.65	3353.7
471.022	3411.1
471.394	3413.81
471.766	3529.51
472.138	3542.84
472.51	3573.58
472.882	3599.79
473.253	3652.67
473.625	3727.25
473.997	3832.78
474.369	3786
474.74	3853.35
475.112	3946.22
475.484	3980.35
475.855	4070.51
476.227	4110.97
476.598	4202.94
476.97	4306.67
477.341	4362.26
477.713	4400.68
478.084	4434.57
478.455	4550.73
478.827	4604.51
479.198	4726.09
479.569	4778.74
479.94	4916.14
480.311	4955.69
480.682	5076.82
481.053	5173.08
481.424	5244.27
481.795	5349.12
482.166	5445.17
482.537	5496.92
482.908	5623.47
483.279	5726.52
483.65	5846.29
484.021	5971.26
484.391	6042.21
484.762	6130.8
485.133	6221.64
485.503	6272.94
485.874	6476.55
486.244	6543.67
486.615	6689.65
486.985	6795.87
487.356	6886.26
487.726	7010.32
488.097	7205.57
488.467	7294.84
488.837	7413.48
489.207	7536.41
489.578	7714.94
489.948	7866.8
490.318	7895.95
490.688	8017.08
491.058	8215.49
491.428	8328.26
491.798	8448.25
492.168	8696.61
492.538	8730.96
492.908	8932.08
493.278	9008.69
493.648	9157.61
494.017	9375.23
494.387	9488
494.757	9546.98
495.126	9752.85
495.496	9824.49
495.866	10047.53
496.235	10147.87
496.605	10322.1
496.974	10463.11
497.344	10507.41
497.713	10643.67
498.082	10818.81
498.452	11005.7
498.821	11119.59
499.19	11245.69
499.559	11434.16
499.928	11535.18
500.298	11678.22
500.667	11869.63
501.036	12022.17
501.405	12150.08
501.774	12211.77
502.143	12430.29
502.512	12532.89
502.88	12671.19
503.249	12872.32
503.618	12995.25
503.987	13151.18
504.356	13348.01
504.724	13432.53
505.093	13574.22
505.462	13734.67
505.83	13889.24
506.199	14030.03
506.567	14263.47
506.936	14251.04
507.304	14567.19
507.672	14705.72
508.041	14780.06
508.409	14953.39
508.777	15137.57
509.145	15278.58
509.514	15377.79
509.882	15539.14
510.25	15741.17
510.618	15813.93
510.986	15856.19
511.354	16061.61
511.722	16252.34
512.09	16363.07
512.458	16393.58
512.826	16615.5
513.193	16746.79
513.561	16755.15
513.929	17001.02
514.297	17169.15
514.664	17233.56
515.032	17397.85
515.4	17594
515.767	17621.57
516.135	17810.49
516.502	17678.52
516.869	18014.33
517.237	18194.44
517.604	18095.91
517.972	18432.85
518.339	18627.19
518.706	18510.81
519.073	18635.78
519.44	18820.86
519.808	18988.99
520.175	19059.72
520.542	19316.44
520.909	19385.59
521.276	19426.95
521.643	19703.55
522.009	19762.76
522.376	19904.45
522.743	19935.18
523.11	20209.3
523.477	20378.33
523.843	20467.6
524.21	20659.91
524.577	20841.15
524.943	20895.83
525.31	21032.55
525.676	21305.99
526.043	21350.06
526.409	21412.21
526.776	21660.11
527.142	21587.79
527.508	21828.01
527.874	21933.1
528.241	22058.29
528.607	22180.09
528.973	22295.35
529.339	22251.05
529.705	22555.68
530.071	22684.49
530.437	22670.48
530.803	22817.37
531.169	22988.44
531.535	22984.14
531.901	23039.96
532.267	23185.04
532.632	23232.5
532.998	23384.13
533.364	23319.05
533.73	23410.8
534.095	23606.27
534.461	23642.88
534.826	23666.16
535.192	23820.05
535.557	23906.38
535.923	23828.19
536.288	23973.27
536.653	24020.72
537.019	23977.56
537.384	24040.84
537.749	23960.61
538.114	24095.75
538.479	24052.81
538.845	24117.44
539.21	23995.19
539.575	24141.85
539.94	24240.15
540.305	24305.01
540.67	24170.55
541.034	24279.02
541.399	24136.2
541.764	24216.2
542.129	24306.14
542.494	24232.47
542.858	24418
543.223	24262.07
543.587	24359.25
543.952	24342.75
544.316	24427.49
544.681	24353.37
545.045	24396.99
545.41	24523.99
545.774	24387.27
546.138	24439.02
546.503	24526.7
546.867	24540.48
547.231	24563.76
547.595	24496.19
547.959	24563.31
548.324	24455.74
548.688	24561.5
549.052	24643.98
549.416	24565.57
549.779	24602.4
550.143	24542.74
550.507	24752
550.871	24706.58
551.235	24711.1
551.599	24780.25
551.962	24791.1
552.326	24916.52
552.689	24891.66
553.053	24664.32
553.417	24760.37
553.78	24901.15
554.143	24929.18
554.507	25014.14
554.87	25024.99
555.234	25109.96
555.597	24969.63
555.96	25028.38
556.323	25090.98
556.686	25174.82
557.05	25273.8
557.413	25238.32
557.776	25360.58
558.139	25406.9
558.502	25470.86
558.865	25487.58
559.228	25620.46
559.59	25599.67
559.953	25682.6
560.316	25866.33
560.679	25742.04
561.041	25922.82
561.404	25963.5
561.767	26069.94
562.129	25972.76
562.492	26262.25
562.854	26215.02
563.217	26299.53
563.579	26215.24
563.941	26391.51
564.304	26448.68
564.666	26677.38
565.028	26568.91
565.39	26685.51
565.753	26979.29
566.115	26839.41
566.477	26944.72
566.839	27106.74
567.201	27219.96
567.563	27171.38
567.925	27329.34
568.287	27307.42
568.648	27397.36
569.01	27588.31
569.372	27778.37
569.734	27583.79
570.095	27873.5
570.457	27959.15
570.819	27950.56
571.18	27881.87
571.542	28206.83
571.903	28146.04
572.265	28218.13
572.626	28311.91
572.987	28273.49
573.349	28372.25
573.71	28522.75
574.071	28615.18
574.432	28776.53
574.794	28873.48
575.155	28753.71
575.516	28671.22
575.877	28888.17
576.238	28743.99
576.599	28900.6
576.96	29009.52
577.32	29046.58
577.681	28930.2
578.042	29135.62
578.403	29079.12
578.763	29042.74
579.124	28980.82
579.485	29237.31
579.845	29321.15
580.206	29185.33
580.566	29054.04
580.927	29143.3
581.287	29256.74
581.648	29184.2
582.008	29240.93
582.368	29178.33
582.728	29217.42
583.089	29059.91
583.449	29272.56
583.809	29226.24
584.169	29318.44
584.529	29184.66
584.889	29445.44
585.249	29116.41
585.609	28932.46
585.969	29173.13
586.329	29001.84
586.688	29061.04
587.048	29081.61
587.408	28987.37
587.768	29007.26
588.127	28900.37
588.487	28849.3
588.846	29171.55
589.206	28896.98
589.565	28833.25
589.925	28886.59
590.284	28827.15
590.643	28876.42
591.003	28851.56
591.362	28947.37
591.721	28871.9
592.08	28925
592.44	29010.2
592.799	28823.31
593.158	28917.77
593.517	28714.84
593.876	28788.73
594.235	28712.8
594.593	28640.94
594.952	28768.85
595.311	28619.47
595.67	28756.87
596.029	28873.93
596.387	28879.13
596.746	28949.63
597.104	28681.17
597.463	28761.16
597.822	28905.34
598.18	28708.74
598.538	28720.04
598.897	28855.17
599.255	28686.36
599.613	28972.91
599.972	28704.67
600.33	28800.71
600.688	28844.78
601.046	28746.48
601.404	29008.39
601.762	28866.92
602.12	28894.04
602.478	28909.86
602.836	28839.13
603.194	28880.03
603.552	28853.37
603.91	28729.98
604.268	28906.25
604.625	28804.55
604.983	29032.34
605.341	28902.86
605.698	28959.35
606.056	29165.9
606.413	28850.43
606.771	29254.49
607.128	29038.22
607.485	28967.71
607.843	29126.58
608.2	29114.38
608.557	29183.3
608.914	29138.56
609.272	29262.39
609.629	29344.88
609.986	29439.56
610.343	29393.69
610.7	29700.35
611.057	29480.02
611.414	29379.68
611.771	29516.4
612.127	29659.9
612.484	29611.99
612.841	29677.52
613.198	29676.85
613.554	29648.82
613.911	29842.72
614.267	29812.21
614.624	29833.45
614.98	29839.1
615.337	29922.26
615.693	30005.65
616.05	29920
616.406	30042.26
616.762	30001.36
617.118	29971.98
617.475	29971.98
617.831	30172.43
618.187	30178.98
618.543	30151.86
618.899	30325.87
619.255	30275.48
619.611	30334.68
619.967	30334.68
620.323	30407.9
620.678	30291.52
621.034	30346.21
621.39	30347.56
621.746	30395.02
622.101	30578.52
622.457	30390.05
622.812	30556.6
623.168	30570.38
623.523	30501.46
623.879	30700.77
624.234	30412.65
624.589	30616.94
624.945	30576.03
625.3	30549.14
625.655	30609.7
626.01	30676.37
626.365	30625.3
626.72	30617.39
627.075	30663.04
627.43	30653.54
627.785	30663.04
628.14	30552.08
628.495	30682.47
628.85	30589.37
629.205	30475.47
629.559	30506.43
629.914	30458.97
630.269	30539.42
630.623	30296.49
630.978	30423.27
631.332	30494.45
631.687	30420.56
632.041	30268.7
632.396	30425.3
632.75	30339.65
633.104	30341.91
633.459	30147.12
633.813	30180.11
634.167	30075.48
634.521	30174.69
634.875	30142.82
635.229	30085.42
635.583	29941.47
635.937	29810.63
636.291	30053.11
636.645	29909.38
636.999	29823.74
637.352	29905.54
637.706	29670.52
638.06	29733.79
638.413	29788.93
638.767	29719.56
639.121	29663.29
639.474	29680.46
639.828	29640.46
640.181	29465.1
640.534	29569.5
640.888	29421.71
641.241	29346.91
641.594	29390.98
641.947	29368.61
642.301	29345.78
642.654	29332
643.007	29263.07
643.36	29219.23
643.713	29290.64
644.066	29386.23
644.419	29117.99
644.771	28793.03
645.124	28568.63
645.477	28477.78
645.83	28410.21
646.182	28398.01
646.535	28377.45
646.888	28511.91
647.24	28384.9
647.593	28729.75
647.945	28457.9
648.298	28291.12
648.65	28135.87
649.002	27988.3
649.355	27827.18
649.707	27809.33
650.059	27798.03
650.411	28152.82
650.763	28345.81
651.115	28794.84
651.467	28732.69
651.819	28720.94
652.171	28694.05
652.523	28530.89
652.875	28631.68
653.227	28489.08
653.578	28762.75
653.93	28640.04
654.282	28487.95
654.633	28457.22
654.985	28493.83
655.337	28460.61
655.688	28474.62
656.039	28588.97
656.391	28217.68
656.742	28489.76
657.094	28494.05
657.445	28391.46
657.796	28548.51
658.147	28393.26
658.498	28560.72
658.849	28540.15
659.2	28405.24
659.551	28270.1
659.902	28578.8
660.253	28436.65
660.604	28552.81
660.955	28268.07
661.306	28514.62
661.656	28516.2
662.007	28438.46
662.358	28493.38
662.708	28571.79
663.059	28605.24
663.409	28295.19
663.76	28587.16
664.11	28611.56
664.461	28518.01
664.811	28640.26
665.161	28581.28
665.511	28520.94
665.862	28503.77
666.212	28670.32
666.562	28588.06
666.912	28648.63
667.262	28405.24
667.612	28537.44
667.962	28588.06
668.312	28468.74
668.662	28652.69
669.011	28676.65
669.361	28673.26
669.711	28649.76
670.06	28555.29
670.41	28407.95
670.76	28457.67
671.109	28584.45
671.459	28479.82
671.808	28440.95
672.157	28575.18
672.507	28278.47
672.856	28329.31
673.205	28392.36
673.554	28391.68
673.904	28380.84
674.253	28620.6
674.602	28332.7
674.951	28085.02
675.3	27935.2
675.649	28279.6
675.998	28315.53
676.346	28435.52
676.695	28346.94
677.044	28157.79
677.393	28237.34
677.741	28286.6
678.09	28187.85
678.438	28104.68
678.787	28247.73
679.135	28132.71
679.484	27856.1
679.832	28015.42
680.181	27941.3
680.529	27978.13
680.877	27813.39
681.225	27878.02
681.573	28169.32
681.922	27883.22
682.27	27840.06
682.618	27876.67
682.966	27782.21
683.314	27726.62
683.661	27707.41
684.009	27640.52
684.357	27484.14
684.705	27436.23
685.053	27359.62
685.4	27262.9
685.748	27139.96
686.095	27221.32
686.443	27058.38
686.79	26960.76
687.138	26986.97
687.485	27136.12
687.832	26924.83
688.18	26794.89
688.527	26712.18
688.874	26715.79
689.221	26722.12
689.568	26565.52
689.915	26443.71
690.262	26532.07
690.609	26518.51
690.956	26369.59
691.303	26292.53
691.65	26175.92
691.997	26010.5
692.344	25972.76
692.69	25866.78
693.037	25860.9
693.383	25689.16
693.73	25652.77
694.077	25593.79
694.423	25453.68
694.769	25391.31
695.116	25296.62
695.462	25289.62
695.808	25201.71
696.155	25214.37
696.501	24968.27
696.847	25033.13
697.193	24884.66
697.539	24854.15
697.885	24602.63
698.231	24562.18
698.577	24570.77
698.923	24462.75
699.269	24410.32
699.614	24238.8
699.96	24179.59
700.306	24275.18
700.651	24026.6
700.997	23975.3
701.342	23938.69
701.688	23816.44
702.033	23760.84
702.379	23728.98
702.724	23522.43
703.069	23692.15
703.415	23327.18
703.76	23349.1
704.105	23312.49
704.45	23258.26
704.795	23082.22
705.14	23001.32
705.485	23085.38
705.83	22868.44
706.175	23000.19
706.52	22868.44
706.865	22720.42
707.209	22684.04
707.554	22623.02
707.899	22583.93
708.243	22379.86
708.588	22427.09
708.932	22378.96
709.277	22338.96
709.621	22204.5
709.966	22115.24
710.31	22271.39
710.654	21941.23
710.998	21984.62
711.342	22058.97
711.687	21975.13
712.031	21913.89
712.375	21798.18
712.719	21774.68
713.063	21764.74
713.407	21763.16
713.75	21717.73
714.094	21798.41
714.438	21616.04
714.782	21677.51
715.125	21456.72
715.469	21660.56
715.812	21414.24
716.156	21397.29
716.499	21502.6
716.843	21552.31
717.186	21298.76
717.53	21446.1
717.873	21495.82
718.216	21271.64
718.559	21232.55
718.902	21053.12
719.246	21185.54
719.589	21136.96
719.932	20973.57
720.275	21075.49
720.617	21110.52
720.96	20890.64
721.303	20975.83
721.646	20968.38
721.989	20904.65
722.331	20949.17
722.674	20883.18
723.016	20895.16
723.359	20772.67
723.701	20939
724.044	20834.59
724.386	20675.5
724.729	20767.02
725.071	20694.71
725.413	20779.68
725.755	20734.48
726.097	20746.01
726.439	20607.25
726.782	20692.22
727.124	20757.76
727.465	20720.47
727.807	20644.32
728.149	20618.55
728.491	20685.44
728.833	20633.92
729.175	20615.84
729.516	20670.3
729.858	20489.07
730.199	20642.96
730.541	20593.92
730.882	20573.36
731.224	20475.73
731.565	20394.6
731.906	20589.4
732.248	20600.93
732.589	20580.14
732.93	20557.09
733.271	20559.12
733.612	20510.08
733.953	20586.46
734.294	20489.29
734.635	20509.86
734.976	20709.85
735.317	20629.18
735.658	20423.08
735.999	20484.77
736.339	20544.21
736.68	20605.22
737.021	20553.02
737.361	20581.49
737.702	20712.34
738.042	20705.11
738.383	20769.06
738.723	20712.79
739.063	20651.77
739.404	20744.2
739.744	20770.64
740.084	20827.81
740.424	20944.42
740.764	20980.13
741.104	21057.64
741.444	20943.74
741.784	20862.16
742.124	21042.5
742.464	21073.91
742.804	21054.7
743.143	21091.99
743.483	21234.81
743.823	21165.21
744.162	21209.95
744.502	21354.13
744.841	21241.36
745.181	21490.62
745.52	21400
745.86	21483.84
746.199	21611.75
746.538	21651.52
746.877	21922.25
747.216	22002.25
747.556	21868.69
747.895	22063.71
748.234	22059.42
748.573	22122.7
748.911	22067.56
749.25	22263.48
749.589	22108.23
749.928	22471.84
750.267	22563.59
750.605	22638.84
750.944	22685.17
751.283	22751.38
751.621	23076.57
751.96	23001.99
752.298	23099.39
752.636	23287.64
752.975	23326.73
753.313	23441.98
753.651	23626.61
753.989	23728.53
754.327	23757.68
754.666	23773.05
755.004	24028.63
755.342	24037.9
755.679	24312.92
756.017	24187.5
756.355	24489.19
756.693	24643.76
757.031	24856.86
757.368	24692.57
757.706	24879.01
758.044	25002.39
758.381	25147.47
758.719	25275.61
759.056	25428.82
759.394	25448.48
759.731	25459.33
760.068	25557.86
760.405	25668.82
760.743	25606.67
761.08	25838.98
761.417	25825.87
761.754	25884.86
762.091	26057.28
762.428	26102.48
762.765	26023.38
763.102	26104.51
763.438	26171.4
763.775	26126.21
764.112	26375.01
764.449	26412.07
764.785	26355.58
765.122	26518.51
765.458	26459.53
765.795	26453.88
766.131	26566.87
766.467	26543.82
766.804	26500.66
767.14	26532.97
767.476	26528.91
767.812	26634.21
768.148	26653.88
768.485	26683.25
768.821	26581.79
769.157	26619.75
769.492	26530.94
769.828	26521
770.164	26434.9
770.5	26502.69
770.836	26457.04
771.171	26424.5
771.507	26400.55
771.842	26303.38
772.178	26422.7
772.513	26379.76
772.849	26283.72
773.184	26243.26
773.519	26428.8
773.855	26224.28
774.19	26117.62
774.525	25981.8
774.86	26213.21
775.195	26043.5
775.53	25972.09
775.865	25921.01
776.2	25829.94
776.535	25652.09
776.87	25772.99
777.205	25606.9
777.539	25555.15
777.874	25691.41
778.209	25366.9
778.543	25310.63
778.878	25297.53
779.212	25382.5
779.547	25106.35
779.881	25065.67
780.215	24959.23
780.55	25130.3
780.884	24912.23
781.218	24882.4
781.552	24984.77
781.886	24871.78
782.22	24694.38
782.554	24591.1
782.888	24348.17
783.222	24514.95
783.556	24299.36
783.889	24288.74
784.223	24128.52
784.557	24166.03
784.89	24237.44
785.224	23992.93
785.557	23810.11
785.891	23900.95
786.224	23845.14
786.558	23819.83
786.891	23694.86
787.224	23499.61
787.557	23349.33
787.891	23455.32
788.224	23377.35
788.557	23314.3
788.89	23212.61
789.223	23274.76
789.556	23045.83
789.888	22989.34
790.221	22881.09
790.554	22845.61
790.887	22920.87
791.219	22878.83
791.552	22750.25
791.884	22706.86
792.217	22696.69
792.549	22467.32
792.882	22326.98
793.214	22284.95
793.546	22236.82
793.879	22227.55
794.211	22075.46
794.543	22144.39
794.875	22122.47
795.207	22120.21
795.539	21968.57
795.871	21947.33
796.203	21875.7
796.535	21661.01
796.867	21662.37
797.198	21570.17
797.53	21547.57
797.862	21355.94
798.193	21464.63
798.525	21370.4
798.856	21336.05
799.188	21186.67
799.519	21166.56
799.85	20998.43
800.182	21038.88
800.513	21092.89
800.844	20784.2
801.175	21004.76
801.506	20937.19
801.837	20859.9
802.168	20673.69
802.499	20717.31
802.83	20552.79
803.161	20572.45
803.491	20549.63
803.822	20596.86
804.153	20475.28
804.483	20333.14
804.814	20142.86
805.145	20196.64
805.475	20325.23
805.805	20198.45
806.136	20076.87
806.466	20019.47
806.796	19966.14
807.126	19875.75
807.457	19851.79
807.787	19869.42
808.117	19804.79
808.447	19584
808.777	19700.16
809.107	19607.06
809.436	19551.46
809.766	19462.88
810.096	19512.14
810.426	19402.99
810.755	19435.08
811.085	19413.61
811.414	19428.3
811.744	19268.31
812.073	19247.29
812.403	19156.45
812.732	19108.99
813.061	19164.35
813.39	19018.82
813.719	18991.48
814.049	19128.65
814.378	19011.14
814.707	18848.43
815.036	19008.43
815.365	18847.98
815.693	18798.94
816.022	18774.08
816.351	18640.75
816.68	18555.11
817.008	18693.86
817.337	18502.23
817.665	18493.41
817.994	18490.7
818.322	18630.58
818.651	18503.58
818.979	18424.94
819.307	18398.27
819.636	18357.37
819.964	18371.38
820.292	18339.74
820.62	18301.78
820.948	18206.19
821.276	18395.56
821.604	18333.64
821.932	18417.93
822.259	18339.52
822.587	18294.32
822.915	18327.54
823.243	18364.6
823.57	18167.09
823.898	18301.78
824.225	18202.35
824.553	18214.55
824.88	18388.1
825.207	18391.27
825.535	18245.96
825.862	18338.39
826.189	18264.27
826.516	18533.86
826.843	18383.58
827.17	18357.37
827.497	18504.26
827.824	18447.09
828.151	18553.98
828.478	18245.73
828.805	18423.36
829.131	18387.65
829.458	18470.14
829.785	18203.93
830.111	18367.54
830.438	18391.72
830.764	18345.17
831.09	18438.5
831.417	18332.29
831.743	18480.98
832.069	18379.74
832.395	18296.13
832.722	18403.02
833.048	18303.36
833.374	18397.82
833.7	18225.62
834.026	18321.44
834.351	18181.33
834.677	18326.64
835.003	18248.9
835.329	18196.7
835.654	18238.28
835.98	18080.32
836.306	18221.55
836.631	18099.3
836.956	18273.3
837.282	18112.41
837.607	18148.56
837.932	18038.28
838.258	18107.21
838.583	18032.86
838.908	17924.39
839.233	17997.38
839.558	17943.14
839.883	17953.77
840.208	17813.43
840.533	17800.32
840.858	17850.72
841.182	17838.74
841.507	17747.44
841.832	17761.68
842.156	17744.05
842.481	17770.49
842.805	17613.89
843.13	17636.26
843.454	17688.24
843.778	17515.36
844.103	17503.83
844.427	17485.98
844.751	17534.12
845.075	17451.86
845.399	17364.85
845.723	17314.91
846.047	17224.52
846.371	17190.62
846.695	17167.35
847.019	16928.93
847.343	17018.42
847.666	16963.28
847.99	16899.1
848.313	16864.3
848.637	16778.43
848.96	16766.23
849.284	16706.34
849.607	16584.99
849.931	16605.78
850.254	16459.12
850.577	16368.04
850.9	16222.51
851.223	16183.19
851.546	16202.85
851.869	16057.77
852.192	16145.23
852.515	16044.44
852.838	15964.44
853.161	15806.25
853.483	15820.04
853.806	15818.68
854.129	15757.89
854.451	15732.58
854.774	15674.05
855.096	15558.57
855.419	15549.99
855.741	15531.91
856.063	15423.44
856.385	15416.88
856.708	15300.95
857.03	15284.68
857.352	15286.04
857.674	15225.93
857.996	15159.49
858.318	15062.54
858.64	15123.56
858.961	15042.2
859.283	15025.25
859.605	14845.6
859.926	14972.15
860.248	14825.03
860.57	14781.87
860.891	14709.1
861.212	14646.06
861.534	14734.41
861.855	14623.91
862.176	14620.75
862.498	14655.55
862.819	14658.03
863.14	14470.69
863.461	14526.06
863.782	14439.51
864.103	14522.67
864.424	14459.17
864.745	14440.86
865.065	14330.13
865.386	14325.84
865.707	14354.31
866.027	14301.88
866.348	14262.11
866.668	14202.68
866.989	14201.77
867.309	14099.18
867.63	14157.03
867.95	14195.45
868.27	14034.09
868.59	14168.78
868.91	14016.24
869.23	13992.51
869.55	13986.86
869.87	13984.6
870.19	13934.21
870.51	14055.11
870.83	13924.94
871.15	13918.39
871.469	13906.64
871.789	13971.72
872.109	13931.5
872.428	13822.57
872.748	13952.06
873.067	13855.34
873.386	13934.21
873.706	13844.95
874.025	13741.45
874.344	13667.78
874.663	13658.06
874.982	13714.1
875.301	13654.9
875.62	13563.6
875.939	13581.45
876.258	13625.97
876.577	13525.86
876.896	13562.69
877.214	13509.81
877.533	13517.05
877.852	13508.46
878.17	13428.91
878.489	13509.59
878.807	13332.42
879.125	13378.29
879.444	13333.55
879.762	13313.89
880.08	13329.25
880.398	13312.31
880.716	13422.13
881.034	13286.54
881.352	13318.86
881.67	13134
881.988	13190.5
882.306	13023.73
882.624	13089.49
882.941	13016.49
883.259	13010.84
883.577	13027.34
883.894	12965.87
884.212	12940.34
884.529	12884.97
884.846	12882.03
885.164	12823.28
885.481	12876.38
885.798	12784.64
886.115	12825.09
886.432	12802.26
886.75	12727.46
887.067	12716.84
887.383	12750.51
887.7	12687.91
888.017	12623.28
888.334	12636.39
888.651	12588.48
888.967	12518.43
889.284	12459.45
889.6	12433.46
889.917	12397.08
890.233	12456.06
890.55	12357.08
890.866	12312.11
891.182	12313.46
891.498	12244.31
891.815	12238.21
892.131	12178.32
892.447	12101.94
892.763	12043.86
893.079	12047.25
893.395	12024.2
893.71	11948.95
894.026	11999.57
894.342	12014.49
894.657	11840.03
894.973	11872.34
895.289	11835.96
895.604	11753.02
895.92	11723.65
896.235	11646.59
896.55	11732.23
896.865	11632.58
897.181	11619.02
897.496	11585.35
897.811	11488.62
898.126	11490.66
898.441	11481.17
898.756	11374.96
899.071	11394.16
899.386	11356.65
899.7	11395.07
900.015	11185.36
900.33	11115.3
900.644	11091.8
900.959	11051.8
901.273	11097.9
901.588	11019.94
901.902	10918.92
902.216	10916.44
902.531	10948.3
902.845	10867.17
903.159	10793.5
903.473	10822.43
903.787	10770.68
904.101	10724.8
904.415	10754.18
904.729	10656.33
905.042	10553.51
905.356	10540.63
905.67	10482.78
905.984	10491.81
906.297	10441.65
906.611	10346.28
906.924	10466.73
907.237	10365.49
907.551	10351.48
907.864	10236.45
908.177	10287.53
908.491	10168.43
908.804	10206.4
909.117	10130.69
909.43	9975.22
909.743	10012.28
910.056	10001.21
910.368	9965.73
910.681	9927.31
910.994	9840.31
911.307	9842.57
911.619	9763.47
911.932	9721.89
912.244	9627.66
912.557	9641.89
912.869	9552.63
913.181	9547.88
913.494	9584.49
913.806	9542.69
914.118	9497.49
914.43	9396.25
914.742	9401.67
915.054	9329.81
915.366	9319.64
915.678	9274.67
915.99	9326.42
916.302	9144.96
916.613	9135.92
916.925	9195.58
917.236	9107.67
917.548	9061.57
917.859	9028.58
918.171	8985.41
918.482	8926.66
918.794	8908.35
919.105	8854.8
919.416	8873.1
919.727	8871.97
920.038	8778.87
920.349	8702.26
920.66	8691.86
920.971	8640.11
921.282	8612.54
921.593	8545.43
921.903	8514.69
922.214	8551.07
922.525	8511.53
922.835	8425.88
923.146	8391.08
923.456	8362.38
923.767	8316.96
924.077	8351.76
924.387	8308.37
924.697	8277.18
925.008	8170.97
925.318	8166
925.628	8127.36
925.938	8101.14
926.248	8075.61
926.558	7951.77
926.867	8016.17
927.177	7982.28
927.487	7932.79
927.796	7845.33
928.106	7821.6
928.416	7860.25
928.725	7836.97
929.034	7791.09
929.344	7788.83
929.653	7662.06
929.962	7649.63
930.271	7608.95
930.581	7608.5
930.89	7550.2
931.199	7466.81
931.508	7538.45
931.817	7416.87
932.125	7477.43
932.434	7392.24
932.743	7330.77
933.051	7287.15
933.36	7281.05
933.669	7230.66
933.977	7198.34
934.286	7224.78
934.594	7173.71
934.902	7089.87
935.21	7105.24
935.519	7044.67
935.827	7049.19
936.135	6973.94
936.443	6997.44
936.751	6979.82
937.059	6976.2
937.367	6904.11
937.674	6867.73
937.982	6879.71
938.29	6800.84
938.597	6827.05
938.905	6776.21
939.213	6740.5
939.52	6676.32
939.827	6763.78
940.135	6733.04
940.442	6589.54
940.749	6614.4
941.056	6587.74
941.363	6533.73
941.67	6437.46
941.977	6514.97
942.284	6461.64
942.591	6428.87
942.898	6402.43
943.205	6352.26
943.511	6357.69
943.818	6333.51
944.125	6289.44
944.431	6226.84
944.738	6227.52
945.044	6195.43
945.35	6207.86
945.657	6198.82
945.963	6147.52
946.269	6085.6
946.575	6064.81
946.881	6074.3
947.187	6065.49
947.493	5995.21
947.799	6006.96
948.105	5941.43
948.41	5933.29
948.716	5947.53
949.022	5832.5
949.327	5853.07
949.633	5785.27
949.938	5816.91
950.244	5762.9
950.549	5758.38
950.854	5668.21
951.16	5690.13
951.465	5709.57
951.77	5630.25
952.075	5597.25
952.38	5649.91
952.685	5595.45
952.99	5605.62
953.294	5550.02
953.599	5519.97
953.904	5423.02
954.209	5416.47
954.513	5416.47
954.818	5420.76
955.122	5355.45
955.426	5367.43
955.731	5322.01
956.035	5292.86
956.339	5316.13
956.643	5236.81
956.948	5263.93
957.252	5211.05
957.556	5151.62
957.86	5113.65
958.163	5206.3
958.467	5133.99
958.771	5107.1
959.075	5105.06
959.378	5096.48
959.682	5098.96
959.985	4988.91
960.289	4974.9
960.592	5003.37
960.896	4997.27
961.199	4958.17
961.502	4938.29
961.805	4949.59
962.108	4847.22
962.411	4886.09
962.714	4823.26
963.017	4790.27
963.32	4769.03
963.623	4723.6
963.926	4730.16
964.228	4702.59
964.531	4697.62
964.833	4693.1
965.136	4640.89
965.438	4626.66
965.741	4624.62
966.043	4588.01
966.345	4605.19
966.648	4592.08
966.95	4532.42
967.252	4530.84
967.554	4519.54
967.856	4502.59
968.158	4408.58
968.46	4469.83
968.761	4420.11
969.063	4436.38
969.365	4370.85
969.666	4376.95
969.968	4371.98
970.269	4305.31
970.571	4308.25
970.872	4301.47
971.174	4248.81
971.475	4293.33
971.776	4260.11
972.077	4210.62
972.378	4197.29
972.679	4196.61
972.98	4191.87
973.281	4218.31
973.582	4163.62
973.883	4068.48
974.183	4119.55
974.484	4075.49
974.785	4031.42
975.085	4032.1
975.386	4057.18
975.686	4000.23
975.986	3924.53
976.287	4014.7
976.587	3909.39
976.887	3893.8
977.187	3929.05
977.487	3872.55
977.787	3869.84
978.087	3872.55
978.387	3865.1
978.687	3854.7
978.987	3825.32
979.286	3798.66
979.586	3788.71
979.885	3708.72
980.185	3753.69
980.484	3717.53
980.784	3667.59
981.083	3684.08
981.382	3664.2
981.682	3695.16
981.981	3634.59
982.28	3632.56
982.579	3608.15
982.878	3619.9
983.177	3598.66
983.475	3582.84
983.774	3528.38
984.073	3534.26
984.372	3505.11
984.67	3492
984.969	3524.31
985.267	3509.4
985.566	3470.08
985.864	3417.42
986.162	3419.23
986.461	3377.2
986.759	3414.94
987.057	3380.59
987.355	3362.74
987.653	3360.93
987.951	3343.75
988.249	3293.59
988.547	3295.62
988.844	3311.66
989.142	3277.99
989.44	3249.07
989.737	3229.41
990.035	3219.46
990.332	3210.2
990.63	3180.37
990.927	3160.26
991.224	3136.53
991.521	3096.08
991.819	3134.72
992.116	3106.7
992.413	3093.59
992.71	3094.49
993.006	3047.49
993.303	3063.76
993.6	3056.53
993.897	3035.51
994.193	3041.61
994.49	3031.22
994.787	2989.86
995.083	3000.94
995.379	2957.78
995.676	2922.3
995.972	2891.34
996.268	2933.82
996.565	2901.51
996.861	2842.98
997.157	2902.41
997.453	2871.45
997.749	2813.15
998.044	2808.85
998.34	2823.77
998.636	2836.2
998.932	2771.34
999.227	2768.4
999.523	2737.67
999.818	2725.92
1000.114	2694.28
1000.409	2720.72
1000.704	2699.7
1001	2684.79
1001.295	2666.26
1001.59	2647.73
1001.885	2625.35
1002.18	2627.16
1002.475	2624.45
1002.77	2584.9
1003.065	2605.69
1003.359	2582.19
1003.654	2551.68
1003.949	2534.06
1004.243	2528.86
1004.538	2518.01
1004.832	2500.16
1005.127	2513.49
1005.421	2443.89
1005.715	2405.7
1006.009	2446.6
1006.304	2421.97
1006.598	2418.58
1006.892	2406.15
1007.186	2363.44
1007.48	2381.52
1007.773	2344.68
1008.067	2338.58
1008.361	2300.84
1008.655	2314.85
1008.948	2317.11
1009.242	2264.69
1009.535	2303.1
1009.829	2274.18
1010.122	2247.96
1010.415	2210.9
1010.708	2217.91
1011.001	2229.43
1011.295	2225.14
1011.588	2182.65
1011.881	2162.32
1012.173	2160.06
1012.466	2180.39
1012.759	2132.71
1013.052	2126.84
1013.344	2120.06
1013.637	2067.18
1013.93	2089.55
1014.222	2061.98
1014.514	2086.84
1014.807	2033.73
1015.099	2042.55
1015.391	2030.12
1015.683	2006.39
1015.976	2007.74
1016.268	1994.18
1016.56	1947.18
1016.851	1939.05
1017.143	1951.93
1017.435	1939.05
1017.727	1905.37
1018.018	1910.12
1018.31	1888.2
1018.602	1890.68
1018.893	1886.17
1019.185	1845.26
1019.476	1830.8
1019.767	1847.07
1020.058	1835.09
1020.35	1791.93
1020.641	1800.97
1020.932	1797.35
1021.223	1772.04
1021.514	1745.6
1021.804	1741.76
1022.095	1753.06
1022.386	1730.24
1022.677	1700.18
1022.967	1697.24
1023.258	1696.79
1023.548	1660.41
1023.839	1671.48
1024.129	1643.23
1024.419	1655.89
1024.709	1654.98
1025	1629.22
1025.29	1608.21
1025.58	1605.49
1025.87	1591.26
1026.16	1553.74
1026.449	1549.22
1026.739	1579.28
1027.029	1528.66
1027.319	1542.9
1027.608	1525.95
1027.898	1537.93
1028.187	1498.38
1028.477	1508.32
1028.766	1537.7
1029.055	1480.3
1029.344	1471.49
1029.634	1467.19
1029.923	1422.9
1030.212	1429.68
1030.501	1396.01
1030.79	1390.81
1031.078	1417.7
1031.367	1400.75
1031.656	1399.62
1031.945	1361.66
1032.233	1362.34
1032.522	1349
1032.81	1364.37
1033.099	1343.13
1033.387	1346.29
1033.675	1333.86
1033.963	1323.47
1034.251	1329.57
1034.54	1283.02
1034.828	1291.83
1035.116	1283.47
1035.403	1280.98
1035.691	1276.69
1035.979	1272.85
1036.267	1217.71
1036.554	1240.08
1036.842	1213.87
1037.129	1222.68
1037.417	1226.52
1037.704	1195.79
1037.992	1207.54
1038.279	1197.37
1038.566	1171.16
1038.853	1171.16
1039.14	1171.16
