Data from 7726_FLMS001491_007.txt Node
Date: Thu Apr 19 15:17:13 BST 2018
User: hsy
Spectrometer: FLMS00149
Trigger mode: 0
Integration Time (sec): 1.000000E-2
Scans to average: 10
Electric dark correction enabled: true
Nonlinearity correction enabled: false
Boxcar width: 0
XAxis mode: Wavelengths
Number of Pixels in Spectrum: 2048
>>>>>Begin Spectral Data<<<<<
341.393	-18.81
341.776	-18.81
342.16	-18.81
342.543	-82.31
342.927	-79.15
343.31	-70.11
343.693	-54.07
344.077	-70.56
344.46	-60.62
344.843	-69.21
345.226	-35.76
345.61	-53.84
345.993	-16.55
346.376	4.46
346.759	13.95
347.142	2.66
347.525	56.89
347.908	60.28
348.291	65.03
348.674	120.39
349.057	107.06
349.44	129.21
349.823	123.56
350.206	169.66
350.588	222.08
350.971	235.42
351.354	245.59
351.737	252.59
352.119	269.77
352.502	285.81
352.884	312.48
353.267	293.72
353.65	302.99
354.032	335.08
354.414	325.36
354.797	335.53
355.179	353.15
355.562	338.92
355.944	335.98
356.326	357
356.709	360.84
357.091	374.17
357.473	380.95
357.855	372.59
358.238	369.43
358.62	350.22
359.002	385.47
359.384	389.54
359.766	366.71
360.148	366.49
360.53	371.23
360.912	379.37
361.294	342.53
361.676	378.92
362.057	347.28
362.439	382.08
362.821	359.03
363.203	348.18
363.584	373.49
363.966	356.77
364.348	373.94
364.729	350.67
365.111	360.61
365.493	371.91
365.874	342.31
366.256	334.17
366.637	355.64
367.019	335.98
367.4	345.25
367.781	370.56
368.163	359.26
368.544	370.78
368.925	358.35
369.306	340.05
369.688	345.47
370.069	364.91
370.45	370.33
370.831	373.72
371.212	358.58
371.593	345.02
371.974	354.06
372.355	373.94
372.736	370.33
373.117	391.35
373.498	364.68
373.879	379.14
374.26	357.9
374.641	369.2
375.021	368.52
375.402	375.75
375.783	361.52
376.163	397
376.544	399.03
376.925	375.98
377.305	367.17
377.686	383.21
378.066	378.01
378.447	405.81
378.827	404.23
379.208	386.83
379.588	411.46
379.968	403.77
380.349	416.66
380.729	408.29
381.109	420.95
381.489	385.02
381.87	442.42
382.25	393.61
382.63	409.65
383.01	404.68
383.39	415.75
383.77	442.87
384.15	412.36
384.53	427.28
384.91	429.31
385.29	422.31
385.67	429.54
386.049	425.47
386.429	450.55
386.809	422.08
387.189	441.51
387.568	461.4
387.948	478.12
388.328	464.34
388.707	469.31
389.087	439.48
389.466	457.56
389.846	475.19
390.225	493.04
390.605	502.08
390.984	493.49
391.363	494.85
391.743	480.61
392.122	497.56
392.501	493.72
392.881	501.63
393.26	509.99
393.639	508.63
394.018	500.95
394.397	511.57
394.776	509.76
395.155	532.81
395.534	522.42
395.913	514.96
396.292	541.17
396.671	539.14
397.05	535.97
397.429	549.99
397.808	555.18
398.186	536.65
398.565	542.3
398.944	550.44
399.323	553.15
399.701	593.15
400.08	549.53
400.458	573.26
400.837	583.88
401.215	594.73
401.594	590.21
401.972	603.54
402.351	573.94
402.729	571.23
403.107	590.21
403.486	580.72
403.864	608.97
404.242	591.57
404.62	606.93
404.999	616.65
405.377	633.15
405.755	629.53
406.133	640.83
406.511	631.79
406.889	641.06
407.267	649.42
407.645	650.32
408.023	676.99
408.401	674.5
408.779	677.89
409.156	673.82
409.534	677.67
409.912	695.97
410.29	723.99
410.667	737.33
411.045	717.89
411.422	733.48
411.8	748.17
412.178	755.18
412.555	784.33
412.933	782.97
413.31	758.12
413.687	780.71
414.065	774.39
414.442	772.35
414.819	800.6
415.197	794.5
415.574	789.75
415.951	836.76
416.328	822.07
416.705	843.31
417.082	833.59
417.46	847.6
417.837	867.04
418.214	848.06
418.591	834.5
418.967	889.64
419.344	859.58
419.721	848.96
420.098	875.17
420.475	911.11
420.852	885.34
421.228	897.77
421.605	907.49
421.982	902.74
422.358	949.75
422.735	959.92
423.111	945.23
423.488	940.94
423.864	974.38
424.241	990.88
424.617	983.19
424.994	993.82
425.37	999.92
425.746	999.24
426.123	1002.85
426.499	1032.46
426.875	1052.35
427.251	1038.33
427.627	1085.11
428.003	1088.05
428.379	1093.02
428.756	1062.74
429.132	1091.89
429.507	1107.03
429.883	1130.54
430.259	1153.36
430.635	1169.4
431.011	1163.53
431.387	1182.96
431.763	1175.51
432.138	1210.99
432.514	1217.76
432.89	1216.63
433.265	1241.72
433.641	1280.59
434.016	1245.56
434.392	1319
434.767	1304.99
435.143	1302.96
435.518	1339.12
435.894	1347.25
436.269	1363.75
436.644	1396.74
437.02	1367.59
437.395	1356.74
437.77	1383.18
438.145	1418.44
438.52	1433.8
438.895	1449.17
439.271	1443.75
439.646	1457.53
440.021	1475.61
440.395	1495.27
440.77	1450.53
441.145	1455.95
441.52	1515.61
441.895	1497.98
442.27	1544.08
442.645	1514.71
443.019	1539.11
443.394	1576.63
443.769	1551.54
444.143	1578.66
444.518	1585.44
444.892	1578.66
445.267	1581.6
445.641	1646
446.016	1625.44
446.39	1628.38
446.764	1605.78
447.139	1618.21
447.513	1650.75
447.887	1666.34
448.262	1657.75
448.636	1674.7
449.01	1680.35
449.384	1704.76
449.758	1739.33
450.132	1761.03
450.506	1761.03
450.88	1760.58
451.254	1764.64
451.628	1831.53
452.002	1805.09
452.376	1842.15
452.75	1857.97
453.123	1875.83
453.497	1942.04
453.871	1939.55
454.244	1941.59
454.618	1936.16
454.992	2001.02
455.365	2020
455.739	2005.31
456.112	2050.29
456.486	2098.42
456.859	2086.89
457.232	2148.81
457.606	2145.65
457.979	2173.22
458.352	2220
458.725	2245.76
459.099	2236.95
459.472	2290.28
459.845	2320.11
460.218	2329.83
460.591	2369.6
460.964	2416.15
461.337	2427.45
461.71	2462.93
462.083	2479.88
462.456	2507
462.829	2508.58
463.201	2580.89
463.574	2562.59
463.947	2608.46
464.32	2669.93
464.692	2665.64
465.065	2686.88
465.438	2704.73
465.81	2757.84
466.183	2720.1
466.555	2831.96
466.928	2831.51
467.3	2866.53
467.672	2879.42
468.045	2968.45
468.417	2948.57
468.789	2963.93
469.161	3025.4
469.534	3092.07
469.906	3144.72
470.278	3157.15
470.65	3183.81
471.022	3238.5
471.394	3296.58
471.766	3303.59
472.138	3379.52
472.51	3468.1
472.882	3498.38
473.253	3541.09
473.625	3577.93
473.997	3651.15
474.369	3650.92
474.74	3689.79
475.112	3799.39
475.484	3867.64
475.855	3896.11
476.227	3972.04
476.598	4050.46
476.97	4097.24
477.341	4151.47
477.713	4252.94
478.084	4294.75
478.455	4377.68
478.827	4443.89
479.198	4551.24
479.569	4553.5
479.94	4719.59
480.311	4763.89
480.682	4828.29
481.053	4953.26
481.424	5044.33
481.795	5148.51
482.166	5205.46
482.537	5252.91
482.908	5380.59
483.279	5491.55
483.65	5583.53
484.021	5674.37
484.391	5739.23
484.762	5836.63
485.133	5898.32
485.503	6046.11
485.874	6182.15
486.244	6305.54
486.615	6417.4
486.985	6519.55
487.356	6688.58
487.726	6716.83
488.097	6929.7
488.467	6934
488.837	7147.55
489.207	7246.08
489.578	7423.03
489.948	7473.19
490.318	7595.45
490.688	7651.27
491.058	7893.97
491.428	8072.27
491.798	8090.58
492.168	8358.82
492.538	8355.2
492.908	8600.17
493.278	8722.88
493.648	8775.08
494.017	8939.82
494.387	9084.68
494.757	9215.52
495.126	9385.46
495.496	9495.74
495.866	9606.47
496.235	9753.81
496.605	9893.24
496.974	10054.59
497.344	10214.59
497.713	10298.66
498.082	10495.49
498.452	10626.78
498.821	10811.64
499.19	10882.6
499.559	11015.02
499.928	11207.11
500.298	11386.76
500.667	11520.32
501.036	11635.34
501.405	11768.67
501.774	11828.11
502.143	12040.3
502.512	12270.81
502.88	12403.23
503.249	12547.64
503.618	12681.64
503.987	12786.27
504.356	12986.49
504.724	13048.64
505.093	13223.1
505.462	13299.93
505.83	13474.62
506.199	13707.61
506.567	13840.71
506.936	13934.72
507.304	14151.89
507.672	14341.04
508.041	14355.95
508.409	14624.64
508.777	14825.54
509.145	15002.94
509.514	14978.31
509.882	15178.53
510.25	15301.46
510.618	15491.29
510.986	15570.61
511.354	15703.94
511.722	15937.83
512.09	16026.19
512.458	16000.2
512.826	16259.18
513.193	16291.49
513.561	16521.99
513.929	16647.64
514.297	16845.83
514.664	16964.92
515.032	17066.39
515.4	17188.42
515.767	17314.52
516.135	17478.58
516.502	17378.24
516.869	17687.84
517.237	17890.55
517.604	17689.42
517.972	18164.66
518.339	18106.13
518.706	18162.86
519.073	18361.49
519.44	18479.01
519.808	18719.68
520.175	18687.14
520.542	18899.33
520.909	19111.53
521.276	19187.01
521.643	19301.58
522.009	19465.19
522.376	19562.37
522.743	19629.03
523.11	19827.67
523.477	19996.48
523.843	20085.74
524.21	20319.18
524.577	20418.16
524.943	20468.78
525.31	20537.71
525.676	20846.4
526.043	21000.75
526.409	21142.66
526.776	21212.49
527.142	21272.6
527.508	21410.68
527.874	21578.81
528.241	21649.09
528.607	21675.53
528.973	22000.49
529.339	21900.16
529.705	22169.98
530.071	22259.7
530.437	22329.75
530.803	22403.42
531.169	22491.33
531.535	22534.04
531.901	22633.02
532.267	22729.74
532.632	22766.12
532.998	22886.57
533.364	22990.07
533.73	23060.58
534.095	23192.78
534.461	23084.99
534.826	23264.64
535.192	23294.25
535.557	23382.61
535.923	23231.42
536.288	23425.54
536.653	23449.04
537.019	23377.18
537.384	23507.12
537.749	23555.71
538.114	23677.06
538.479	23552.32
538.845	23617.85
539.21	23459.21
539.575	23612.2
539.94	23590.51
540.305	23688.81
540.67	23643.16
541.034	23660.11
541.399	23719.77
541.764	23726.33
542.129	23782.37
542.494	23709.83
542.858	23787.34
543.223	23873.67
543.587	23778.3
543.952	23791.41
544.316	23816.72
544.681	23733.33
545.045	23890.84
545.41	23987.56
545.774	23879.77
546.138	23786.89
546.503	23919.09
546.867	23946.43
547.231	23975.13
547.595	24052.19
547.959	23983.04
548.324	23971.52
548.688	24051.29
549.052	23965.19
549.416	23950.5
549.779	23920.9
550.143	23880.45
550.507	24045.64
550.871	24103.04
551.235	24073.21
551.599	24136.71
551.962	24130.16
552.326	24092.19
552.689	24174.22
553.053	24105.3
553.417	24205.63
553.78	24292.86
554.143	24254.45
554.507	24271.85
554.87	24402.92
555.234	24531.28
555.597	24359.08
555.96	24454.22
556.323	24529.69
556.686	24496.7
557.05	24576.02
557.413	24589.58
557.776	24518.17
558.139	24725.17
558.502	24682.68
558.865	24730.37
559.228	24822.34
559.59	24899.18
559.953	24836.13
560.316	25129.45
560.679	25022.34
561.041	25045.84
561.404	25269.56
561.767	25372.84
562.129	25254.65
562.492	25384.13
562.854	25357.02
563.217	25393.17
563.579	25478.82
563.941	25583.45
564.304	25702.32
564.666	25813.5
565.028	25867.29
565.39	26005.14
565.753	26089.2
566.115	25886.04
566.477	26121.52
566.839	26142.08
567.201	26437.44
567.563	26269.76
567.925	26463.65
568.287	26453.94
568.648	26599.02
569.01	26610.09
569.372	26901.16
569.734	26709.3
570.095	26947.71
570.457	26938.9
570.819	27087.82
571.18	26947.03
571.542	27284.2
571.903	27068.84
572.265	27278.55
572.626	27395.38
572.987	27396.06
573.349	27501.37
573.71	27608.94
574.071	27692.77
574.432	27673.79
574.794	27910.85
575.155	27737.75
575.516	27736.39
575.877	27827.91
576.238	27815.71
576.599	27977.06
576.96	27970.51
577.32	27939.55
577.681	27915.37
578.042	28113.33
578.403	28006.44
578.763	27991.52
579.124	28049.38
579.485	28257.96
579.845	28143.61
580.206	28085.08
580.566	28055.48
580.927	28071.3
581.287	28183.38
581.648	28073.78
582.008	28204.4
582.368	28118.53
582.728	28189.71
583.089	28153.33
583.449	28116.27
583.809	28216.6
584.169	28161.91
584.529	28048.02
584.889	28289.82
585.249	28095.25
585.609	27935.03
585.969	28190.16
586.329	27837.63
586.688	27990.17
587.048	27844.64
587.408	27949.49
587.768	27924.63
588.127	27862.94
588.487	27982.26
588.846	28163.95
589.206	27675.15
589.565	27787.69
589.925	27876.27
590.284	27888.48
590.643	27789.04
591.003	27857.97
591.362	27936.61
591.721	27724.86
592.08	27658.2
592.44	27919.89
592.799	27721.02
593.158	27807.12
593.517	27661.36
593.876	27780.46
594.235	27729.16
594.593	27564.19
594.952	27686.45
595.311	27674.24
595.67	27628.82
596.029	27799.89
596.387	27703.62
596.746	27771.42
597.104	27685.54
597.463	27623.17
597.822	27708.14
598.18	27607.58
598.538	27504.08
598.897	27790.4
599.255	27490.75
599.613	27907.68
599.972	27686.22
600.33	27657.3
600.688	27707.24
601.046	27711.76
601.404	27806.44
601.762	27763.73
602.12	27833.79
602.478	27793.79
602.836	27988.13
603.194	27638.54
603.552	27767.57
603.91	27701.14
604.268	27805.54
604.625	27749.27
604.983	28065.42
605.341	27758.99
605.698	27968.25
606.056	28109.94
606.413	27852.32
606.771	27995.82
607.128	28058.87
607.485	28003.5
607.843	28036.72
608.2	28035.36
608.557	28160.56
608.914	28078.75
609.272	28234.91
609.629	28332.08
609.986	28306.32
610.343	28239.43
610.7	28355.36
611.057	28447.33
611.414	28392.64
611.771	28559.42
612.127	28570.94
612.484	28584.95
612.841	28603.71
613.198	28457.27
613.554	28567.78
613.911	28709.7
614.267	28694.78
614.624	28739.3
614.98	28779.07
615.337	28878.73
615.693	28889.58
616.05	28920.54
616.406	28939.3
616.762	28877.6
617.118	28958.73
617.475	28890.03
617.831	29085.28
618.187	29106.75
618.543	29068.56
618.899	29300.19
619.255	29227.42
619.611	29197.82
619.967	29333.41
620.323	29391.26
620.678	29136.58
621.034	29172.51
621.39	29250.47
621.746	29262.45
622.101	29497.47
622.457	29184.71
622.812	29421.54
623.168	29457.47
623.523	29532.27
623.879	29558.26
624.234	29386.97
624.589	29515.1
624.945	29358.72
625.3	29391.49
625.655	29499.28
626.01	29478.94
626.365	29469.68
626.72	29405.27
627.075	29372.05
627.43	29385.16
627.785	29408.44
628.14	29396.23
628.495	29492.95
628.85	29363.47
629.205	29257.03
629.559	29539.96
629.914	29354.43
630.269	29474.42
630.623	29267.65
630.978	29103.36
631.332	29407.76
631.687	29446.4
632.041	29368.44
632.396	29300.64
632.75	29103.36
633.104	29235.11
633.459	29107.65
633.813	29107.65
634.167	29000.54
634.521	29074.21
634.875	28987.66
635.229	28941.78
635.583	28916.02
635.937	28876.47
636.291	28823.59
636.645	28810.03
636.999	28786.76
637.352	28944.49
637.706	28638.96
638.06	28717.15
638.413	28594.45
638.767	28513.54
639.121	28601.23
639.474	28431.74
639.828	28466.09
640.181	28440.1
640.534	28451.4
640.888	28365.53
641.241	28172.08
641.594	28363.04
641.947	28453.66
642.301	28239.88
642.654	28329.59
643.007	28186.55
643.36	28286.43
643.713	28205.98
644.066	28292.98
644.419	28113.55
644.771	27817.07
645.124	27534.59
645.477	27618.65
645.83	27532.1
646.182	27626.34
646.535	27481.71
646.888	27531.42
647.24	27471.09
647.593	27682.15
647.945	27392.67
648.298	27338.89
648.65	27215.05
649.002	26987.03
649.355	26799.24
649.707	26749.3
650.059	26746.58
650.411	27172.34
650.763	27319.68
651.115	27723.73
651.467	27796.73
651.819	27700.46
652.171	27677.86
652.523	27592.89
652.875	27678.99
653.227	27573.68
653.578	27711.76
653.93	27736.39
654.282	27588.14
654.633	27524.19
654.985	27479.9
655.337	27600.57
655.688	27487.36
656.039	27631.76
656.391	27406.68
656.742	27529.16
657.094	27445.78
657.445	27579.78
657.796	27505.43
658.147	27437.87
658.498	27565.09
658.849	27627.47
659.2	27458.2
659.551	27420.69
659.902	27696.84
660.253	27486
660.604	27517.86
660.955	27499.33
661.306	27632.44
661.656	27404.65
662.007	27501.37
662.358	27547.02
662.708	27574.36
663.059	27560.35
663.409	27386.79
663.76	27688.48
664.11	27645.54
664.461	27742.49
664.811	27686.45
665.161	27568.26
665.511	27464.98
665.862	27651.65
666.212	27654.36
666.562	27616.17
666.912	27534.36
667.262	27506.56
667.612	27516.96
667.962	27569.84
668.312	27538.43
668.662	27714.24
669.011	27617.07
669.361	27568.48
669.711	27690.06
670.06	27588.6
670.41	27515.6
670.76	27355.16
671.109	27560.8
671.459	27626.34
671.808	27499.79
672.157	27476.96
672.507	27276.97
672.856	27455.27
673.205	27484.64
673.554	27498.2
673.904	27441.03
674.253	27574.81
674.602	27338.89
674.951	27006.01
675.3	26853.93
675.649	27435.15
675.998	27442.39
676.346	27317.64
676.695	27290.53
677.044	27267.48
677.393	27300.02
677.741	27354.48
678.09	27383.4
678.438	27260.47
678.787	27238.1
679.135	27217.53
679.484	27054.37
679.832	27096.18
680.181	27061.15
680.529	26964.21
680.877	26904.32
681.225	26908.61
681.573	27163.98
681.922	26936.18
682.27	26857.09
682.618	26821.84
682.966	26761.95
683.314	26676.53
683.661	26754.95
684.009	26629.98
684.357	26517.89
684.705	26601.05
685.053	26593.82
685.4	26376.65
685.748	26217.11
686.095	26364.9
686.443	26120.39
686.79	26102.53
687.138	26149.54
687.485	26197.9
687.832	25902.77
688.18	25935.08
688.527	25851.02
688.874	25849.21
689.221	25924.46
689.568	25725.82
689.915	25614.86
690.262	25636.11
690.609	25629.1
690.956	25401.31
691.303	25409.67
691.65	25201.31
691.997	25237.02
692.344	25101.66
692.69	24996.12
693.037	24984.6
693.383	24813.3
693.73	24867.09
694.077	24689.24
694.423	24606.75
694.769	24501.45
695.116	24552.97
695.462	24357.04
695.808	24329.25
696.155	24373.54
696.501	24106.43
696.847	24219.42
697.193	23904.17
697.539	24082.93
697.885	23790.73
698.231	23763.61
698.577	23727.23
698.923	23745.08
699.269	23494.47
699.614	23456.05
699.96	23307.35
700.306	23368.59
700.651	23187.58
700.997	23160.24
701.342	23058.77
701.688	22992.33
702.033	22899.91
702.379	22843.86
702.724	22762.73
703.069	22836.41
703.415	22621.5
703.76	22521.61
704.105	22515.51
704.45	22458.34
704.795	22382.63
705.14	22235.52
705.485	22291.33
705.83	22075.97
706.175	22216.08
706.52	22047.95
706.865	22004.79
707.209	21907.39
707.554	21827.17
707.899	21682.54
708.243	21740.61
708.588	21684.35
708.932	21654.06
709.277	21557.57
709.621	21513.28
709.966	21349.44
710.31	21389.89
710.654	21304.24
710.998	21323.45
711.342	21274.41
711.687	21318.93
712.031	21144.92
712.375	21018.6
712.719	21040.75
713.063	20933.63
713.407	21116.68
713.75	20927.08
714.094	20904.25
714.438	20876.68
714.782	20810.02
715.125	20701.77
715.469	20886.4
715.812	20660.42
716.156	20586.29
716.499	20688.44
716.843	20617.03
717.186	20553.98
717.53	20778.83
717.873	20659.51
718.216	20629.01
718.559	20549.91
718.902	20475.34
719.246	20515.56
719.589	20333.19
719.932	20331.84
720.275	20505.17
720.617	20389.92
720.96	20339.97
721.303	20347.43
721.646	20355.34
721.989	20159.64
722.331	20291.16
722.674	20198.51
723.016	20355.57
723.359	20093.65
723.701	20213.65
724.044	19996.48
724.386	20029.02
724.729	20130.94
725.071	20216.59
725.413	20103.6
725.755	19995.58
726.097	20069.47
726.439	19975.46
726.782	19917.39
727.124	19989.93
727.465	19966.88
727.807	19956.25
728.149	19959.19
728.491	19919.65
728.833	20054.78
729.175	19963.71
729.516	19831.06
729.858	19934.33
730.199	19945.41
730.541	19915.8
730.882	19889.82
731.224	20050.94
731.565	20054.56
731.906	20031.28
732.248	20011.39
732.589	19906.99
732.93	19934.11
733.271	19971.85
733.612	19949.25
733.953	20062.69
734.294	20030.83
734.635	19950.83
734.976	20097.27
735.317	20094.1
735.658	19895.24
735.999	19962.36
736.339	20081.45
736.68	20140.66
737.021	20178.17
737.361	20051.39
737.702	20213.2
738.042	20131.39
738.383	20280.99
738.723	20306.3
739.063	20118.06
739.404	20297.04
739.744	20294.1
740.084	20308.11
740.424	20389.69
740.764	20416.13
741.104	20472.63
741.444	20464.94
741.784	20444.15
742.124	20563.02
742.464	20518.73
742.804	20678.04
743.143	20576.8
743.483	20781.32
743.823	20703.81
744.162	20772.05
744.502	20773.18
744.841	20755.1
745.181	20971.6
745.52	20943.57
745.86	21035.55
746.199	21130.91
746.538	21160.97
746.877	21308.76
747.216	21311.25
747.556	21423.56
747.895	21594.18
748.234	21691.35
748.573	21659.26
748.911	21766.15
749.25	21920.95
749.589	21911.91
749.928	22054.73
750.267	22176.99
750.605	22258.79
750.944	22372.01
751.283	22490.88
751.621	22748.05
751.96	22647.26
752.298	22735.62
752.636	22786.69
752.975	22971.77
753.313	23097.19
753.651	23362.95
753.989	23373.57
754.327	23449.27
754.666	23543.96
755.004	23672.32
755.342	23791.86
755.679	23934
756.017	23978.97
756.355	24190.49
756.693	24174.45
757.031	24523.82
757.368	24458.51
757.706	24777.15
758.044	24601.78
758.381	24852.85
758.719	24830.93
759.056	25032.51
759.394	25183.69
759.731	25058.72
760.068	25217.81
760.405	25252.39
760.743	25280.41
761.08	25472.04
761.417	25579.61
761.754	25546.62
762.091	25670.68
762.428	25661.42
762.765	25627.07
763.102	25797.01
763.438	25865.03
763.775	25807.85
764.112	25971.46
764.449	26204.9
764.785	26190.67
765.122	26060.73
765.458	26020.05
765.795	26183.21
766.131	26251.23
766.467	26281.96
766.804	26222.3
767.14	26096.21
767.476	26119.26
767.812	26189.31
768.148	26460.72
768.485	26360.38
768.821	26208.29
769.157	26122.42
769.492	26167.39
769.828	26298.24
770.164	26095.75
770.5	26104.12
770.836	26187.73
771.171	26091.23
771.507	26080.39
771.842	25971.01
772.178	26036.55
772.513	25901.18
772.849	25848.53
773.184	25928.75
773.519	25967.62
773.855	25851.47
774.19	25969.88
774.525	25801.52
774.86	25833.16
775.195	25724.69
775.53	25724.46
775.865	25478.6
776.2	25600.4
776.535	25303.23
776.87	25416.45
777.205	25386.17
777.539	25159.73
777.874	25260.97
778.209	25027.53
778.543	25077.93
778.878	24971.49
779.212	24981.89
779.547	24948.67
779.881	24865.28
780.215	24645.85
780.55	24779.4
780.884	24619.18
781.218	24581.9
781.552	24616.47
781.886	24491.5
782.22	24428.68
782.554	24258.74
782.888	24077.05
783.222	24044.06
783.556	24001.8
783.889	23998.63
784.223	23847.9
784.557	23767.23
784.89	23826.21
785.224	23693.56
785.557	23585.31
785.891	23456.73
786.224	23526.1
786.558	23550.74
786.891	23381.7
787.224	23294.47
787.557	23144.19
787.891	23168.15
788.224	23074.59
788.557	22966.12
788.89	22951.66
789.223	22848.16
789.556	22752.11
789.888	22793.47
790.221	22757.99
790.554	22532.01
790.887	22603.64
791.219	22357.77
791.552	22327.72
791.884	22354.84
792.217	22191.45
792.549	22217.66
792.882	21999.82
793.214	21978.57
793.546	21948.29
793.879	21874.62
794.211	21723.89
794.543	21891.35
794.875	21720.5
795.207	21725.02
795.539	21641.86
795.871	21657
796.203	21508.3
796.535	21345.6
796.867	21317.35
797.198	21333.39
797.53	21279.38
797.862	21194.19
798.193	21193.74
798.525	21058.82
798.856	21137.24
799.188	20792.62
799.519	20807.76
799.85	20685.5
800.182	20729.79
800.513	20912.61
800.844	20502.23
801.175	20606.18
801.506	20613.19
801.837	20559.63
802.168	20540.65
802.499	20414.77
802.83	20347.21
803.161	20309.01
803.491	20202.35
803.822	20300.88
804.153	20174.78
804.483	19996.93
804.814	19998.06
805.145	19979.08
805.475	19985.18
805.805	19945.86
806.136	19901.57
806.466	19877.39
806.796	19803.26
807.126	19687.56
807.457	19641.69
807.787	19629.94
808.117	19568.24
808.447	19498.64
808.777	19543.38
809.107	19487.57
809.436	19431.52
809.766	19361.92
810.096	19401.69
810.426	19248.25
810.755	19243.96
811.085	19274.92
811.414	19206.44
811.744	19130.29
812.073	19066.79
812.403	19030.63
812.732	18986.34
813.061	19046.67
813.39	18815.72
813.719	18859.56
814.049	18879.9
814.378	18905.21
814.707	18748.83
815.036	18704.08
815.365	18664.99
815.693	18455.05
816.022	18526.01
816.351	18379.12
816.68	18450.98
817.008	18488.5
817.337	18248.28
817.665	18328.95
817.994	18293.02
818.322	18366.92
818.651	18195.62
818.979	18186.58
819.307	18137.32
819.636	18013.26
819.964	18069.07
820.292	18102.97
820.62	18060.49
820.948	18141.84
821.276	18238.79
821.604	18134.83
821.932	18203.98
822.259	18181.84
822.587	18149.07
822.915	18004.67
823.243	18083.31
823.57	17887.38
823.898	18076.98
824.225	18025.46
824.553	18011.67
824.88	18062.97
825.207	17998.11
825.535	17989.53
825.862	18229.29
826.189	17998.57
826.516	18154.27
826.843	18145
827.17	18185
827.497	18172.35
827.824	18156.3
828.151	18232.91
828.478	18104.78
828.805	18185.23
829.131	18119.69
829.458	18149.75
829.785	18030.2
830.111	18070.65
830.438	18251.44
830.764	18204.44
831.09	18237.88
831.417	18100.94
831.743	18209.86
832.069	18176.41
832.395	18085.8
832.722	18090.09
833.048	18056.64
833.374	18220.26
833.7	18065.46
834.026	17994.05
834.351	18110.2
834.677	18152.91
835.003	18042.63
835.329	18101.84
835.654	17955.63
835.98	17983.43
836.306	18040.15
836.631	17964.67
836.956	18010.09
837.282	17926.25
837.607	17895.74
837.932	17922.64
838.258	17926.03
838.583	17791.34
838.908	17719.93
839.233	17858.23
839.558	17699.82
839.883	17716.77
840.208	17600.61
840.533	17659.14
840.858	17726.94
841.182	17654.17
841.507	17668.18
841.832	17530.78
842.156	17574.62
842.481	17534.4
842.805	17484.68
843.13	17321.3
843.454	17396.55
843.778	17394.51
844.103	17363.78
844.427	17238.59
844.751	17319.26
845.075	17237.91
845.399	17202.2
845.723	17104.8
846.047	17049.89
846.371	17011.7
846.695	16942.32
847.019	16863
847.343	16815.55
847.666	16828.65
847.99	16706.4
848.313	16610.13
848.637	16590.92
848.96	16617.59
849.284	16579.62
849.607	16379.4
849.931	16317.48
850.254	16274.32
850.577	16149.8
850.9	16031.16
851.223	16050.37
851.546	15975.57
851.869	15938.06
852.192	15945.29
852.515	15763.14
852.838	15792.52
853.161	15712.3
853.483	15708.01
853.806	15681.79
854.129	15485.64
854.451	15448.35
854.774	15409.71
855.096	15449.93
855.419	15348.69
855.741	15240.9
856.063	15238.86
856.385	15184.63
856.708	15087.68
857.03	15024.41
857.352	15101.47
857.674	15037.97
857.996	14906.67
858.318	14812.21
858.64	14915.71
858.961	14867.58
859.283	14795.94
859.605	14702.16
859.926	14709.39
860.248	14695.6
860.57	14637.07
860.891	14604.08
861.212	14598.43
861.534	14565.44
861.855	14440.92
862.176	14571.54
862.498	14516.17
862.819	14566.34
863.14	14450.86
863.461	14422.84
863.782	14332
864.103	14390.07
864.424	14240.25
864.745	14381.26
865.065	14185.79
865.386	14145.33
865.707	14253.13
866.027	14214.71
866.348	14106.01
866.668	14179.46
866.989	14116.41
867.309	14004.32
867.63	13923.87
867.95	13984.89
868.27	13909.41
868.59	13969.75
868.91	13897.21
869.23	13925.91
869.55	13869.18
869.87	13894.27
870.19	13748.96
870.51	13758.68
870.83	13792.12
871.15	13775.4
871.469	13708.28
871.789	13804.1
872.109	13784.21
872.428	13734.5
872.748	13679.58
873.067	13769.75
873.386	13679.36
873.706	13650.43
874.025	13474.39
874.344	13496.31
874.663	13581.06
874.982	13562.3
875.301	13555.52
875.62	13515.07
875.939	13455.18
876.258	13444.56
876.577	13424.68
876.896	13345.13
877.214	13263.78
877.533	13374.51
877.852	13343.55
878.17	13384.45
878.489	13401.17
878.807	13310.78
879.125	13231.23
879.444	13220.61
879.762	13188.3
880.08	13290.67
880.398	13176.77
880.716	13158.92
881.034	13099.71
881.352	13132.03
881.67	13069.43
881.988	13051.35
882.306	12964.35
882.624	12982.43
882.941	12909.21
883.259	13031.47
883.577	12883.9
883.894	12893.16
884.212	12850.45
884.529	12817.46
884.846	12726.39
885.164	12656.11
885.481	12725.71
885.798	12691.59
886.115	12621.31
886.432	12667.18
886.75	12698.14
887.067	12639.61
887.383	12553.96
887.7	12596.45
888.017	12473.74
888.334	12437.81
888.651	12403.91
888.967	12358.71
889.284	12419.73
889.6	12340.86
889.917	12283.91
890.233	12302.9
890.55	12294.99
890.866	12200.3
891.182	12164.6
891.498	12157.14
891.815	12078.95
892.131	12022
892.447	12014.32
892.763	11954.21
893.079	11965.96
893.395	11934.09
893.71	11844.15
894.026	11818.39
894.342	11821.1
894.657	11648.22
894.973	11750.37
895.289	11759.41
895.604	11703.82
895.92	11675.12
896.235	11545.18
896.55	11595.57
896.865	11521
897.181	11479.87
897.496	11492.97
897.811	11355.35
898.126	11311.51
898.441	11316.93
898.756	11255.24
899.071	11276.48
899.386	11335.92
899.7	11189.03
900.015	11072.42
900.33	10996.26
900.644	11036.04
900.959	11026.55
901.273	10885.76
901.588	10976.38
901.902	10914.01
902.216	10848.02
902.531	10850.05
902.845	10782.48
903.159	10691.87
903.473	10741.36
903.787	10653
904.101	10621.59
904.415	10549.95
904.729	10548.82
905.042	10467.92
905.356	10522.6
905.67	10421.36
905.984	10397.86
906.297	10335.72
906.611	10349.95
906.924	10335.49
907.237	10214.82
907.551	10283.51
907.864	10212.1
908.177	10198.09
908.491	10064.09
908.804	10012.11
909.117	10008.27
909.43	9962.62
909.743	9918.55
910.056	9904.32
910.368	9883.98
910.681	9827.48
910.994	9768.73
911.307	9719.46
911.619	9644.89
911.932	9641.5
912.244	9714.94
912.557	9616.64
912.869	9490.99
913.181	9465.01
913.494	9451.22
913.806	9352.24
914.118	9320.38
914.43	9319.7
914.742	9282.19
915.054	9187.72
915.366	9206.48
915.678	9146.82
915.99	9114.05
916.302	9084.45
916.613	9081.51
916.925	8998.8
917.236	8966.71
917.548	8931.69
917.859	8929.2
918.171	8913.38
918.482	8837.45
918.794	8861.18
919.105	8824.34
919.416	8746.38
919.727	8722.65
920.038	8695.53
920.349	8651.24
920.66	8555.88
920.971	8633.61
921.282	8552.71
921.593	8497.12
921.903	8475.2
922.214	8468.87
922.525	8423.22
922.835	8364.24
923.146	8333.06
923.456	8285.83
923.767	8266.62
924.077	8230.24
924.387	8181.88
924.697	8165.38
925.008	8156.34
925.318	8134.87
925.628	8105.04
925.938	8015.78
926.248	7942.79
926.558	7909.79
926.867	7952.5
927.177	7867.76
927.487	7899.17
927.796	7736.92
928.106	7824.14
928.416	7746.41
928.725	7719.51
929.034	7697.82
929.344	7664.37
929.653	7630.93
929.962	7592.51
930.271	7598.61
930.581	7549.8
930.89	7438.84
931.199	7492.4
931.508	7317.94
931.817	7401.78
932.125	7442.23
932.434	7290.6
932.743	7224.39
933.051	7265.06
933.36	7283.14
933.669	7171.05
933.977	7183.26
934.286	7179.42
934.594	7109.59
934.902	7059.19
935.21	7057.61
935.519	7018.06
935.827	7012.19
936.135	6943.49
936.443	6939.65
936.751	6867.33
937.059	6871.63
937.367	6837.28
937.674	6817.62
937.982	6765.64
938.29	6775.58
938.597	6760.67
938.905	6652.2
939.213	6676.83
939.52	6659.66
939.827	6664.4
940.135	6525.87
940.442	6566.78
940.749	6503.05
941.056	6557.51
941.363	6494.01
941.67	6439.1
941.977	6439.55
942.284	6360
942.591	6329.04
942.898	6319.33
943.205	6343.73
943.511	6296.73
943.818	6197.97
944.125	6233.9
944.431	6194.36
944.738	6209.05
945.044	6120.46
945.35	6108.94
945.657	6087.24
945.963	6077.07
946.269	6045.89
946.575	6053.34
946.881	5996.4
947.187	5989.39
947.493	5970.18
947.799	5936.74
948.105	5860.81
948.41	5847.47
948.716	5877.53
949.022	5837.98
949.327	5814.93
949.633	5743.3
949.938	5731.09
950.244	5714.6
950.549	5628.27
950.854	5634.82
951.16	5631.43
951.465	5599.34
951.77	5580.59
952.075	5581.04
952.38	5568.61
952.685	5547.14
952.99	5499.01
953.294	5515.96
953.599	5396.41
953.904	5444.55
954.209	5395.28
954.513	5385.79
954.818	5367.49
955.122	5344.44
955.426	5306.24
955.731	5302.4
956.035	5270.09
956.339	5244.78
956.643	5225.12
956.948	5198.68
957.252	5197.09
957.556	5163.88
957.86	5143.54
958.163	5140.37
958.467	5111
958.771	5065.12
959.075	5027.38
959.378	4969.98
959.682	4995.52
959.985	5008.17
960.289	4926.37
960.592	4933.6
960.896	4921.62
961.199	4940.83
961.502	4894.73
961.805	4820.16
962.108	4802.3
962.411	4788.29
962.714	4754.17
963.017	4780.61
963.32	4733.6
963.623	4734.96
963.926	4703.55
964.228	4695.87
964.531	4663.55
964.833	4673.72
965.136	4609.31
965.438	4589.2
965.741	4548.3
966.043	4574.06
966.345	4471.46
966.648	4539.03
966.95	4490.22
967.252	4474.63
967.554	4448.19
967.856	4473.72
968.158	4409.55
968.46	4423.78
968.761	4383.11
969.063	4405.7
969.365	4375.2
969.666	4323.67
969.968	4304.69
970.269	4243
970.571	4252.94
970.872	4234.41
971.174	4168.65
971.475	4188.08
971.776	4153.51
972.077	4147.63
972.378	4136.33
972.679	4131.13
972.98	4142.66
973.281	4122.32
973.582	4115.09
973.883	4058.82
974.183	4082.77
974.484	4033.28
974.785	4027.63
975.085	3972.04
975.386	4002.55
975.686	3962.78
975.986	3934.3
976.287	3910.8
976.587	3927.98
976.887	3917.13
977.187	3848.88
977.487	3869.67
977.787	3812.27
978.087	3783.8
978.387	3813.85
978.687	3779.73
978.987	3768.88
979.286	3735.44
979.586	3756
979.885	3721.2
980.185	3728.66
980.484	3668.1
980.784	3640.07
981.083	3655.21
981.382	3662.45
981.682	3642.56
981.981	3632.62
982.28	3596.69
982.579	3570.92
982.878	3592.39
983.177	3541.77
983.475	3566.63
983.774	3463.58
984.073	3475.78
984.372	3456.8
984.67	3480.76
984.969	3468.78
985.267	3432.4
985.566	3427.42
985.864	3402.79
986.162	3405.05
986.461	3350.36
986.759	3340.65
987.057	3339.97
987.355	3300.65
987.653	3346.3
987.951	3308.78
988.249	3275.79
988.547	3241.67
988.844	3253.64
989.142	3240.54
989.44	3224.49
989.737	3198.05
990.035	3138.39
990.332	3140.88
990.63	3149.47
990.927	3167.54
991.224	3106.08
991.521	3109.47
991.819	3123.7
992.116	3097.04
992.413	3073.54
992.71	3078.28
993.006	3083.25
993.303	3034.89
993.6	2984.05
993.897	2995.34
994.193	3000.09
994.49	2983.14
994.787	2970.03
995.083	2942.24
995.379	2956.02
995.676	2922.13
995.972	2908.57
996.268	2885.97
996.565	2861.11
996.861	2870.15
997.157	2842.81
997.453	2868.57
997.749	2829.02
998.044	2796.25
998.34	2791.96
998.636	2772.07
998.932	2750.15
999.227	2712.64
999.523	2723.49
999.818	2701.34
1000.114	2691.4
1000.409	2676.48
1000.704	2648.69
1001	2632.42
1001.295	2654.56
1001.59	2629.7
1001.885	2617.5
1002.18	2594
1002.475	2584.28
1002.77	2556.03
1003.065	2561.46
1003.359	2548.35
1003.654	2531.85
1003.949	2512.87
1004.243	2474.68
1004.538	2437.62
1004.832	2421.57
1005.127	2454.34
1005.421	2458.86
1005.715	2396.72
1006.009	2438.75
1006.304	2394.68
1006.598	2332.31
1006.892	2375.7
1007.186	2385.87
1007.48	2353.33
1007.773	2330.73
1008.067	2308.81
1008.361	2323.72
1008.655	2267.23
1008.948	2260.22
1009.242	2259.55
1009.535	2257.29
1009.829	2245.76
1010.122	2235.82
1010.415	2219.55
1010.708	2193.11
1011.001	2173.45
1011.295	2190.85
1011.588	2167.8
1011.881	2170.51
1012.173	2132.09
1012.466	2111.98
1012.759	2131.64
1013.052	2098.87
1013.344	2095.26
1013.637	2070.85
1013.93	2079.89
1014.222	2037.4
1014.514	2043.28
1014.807	2048.25
1015.099	2036.95
1015.391	1998.08
1015.683	2004.64
1015.976	1989.72
1016.268	1940.46
1016.56	1910.85
1016.851	1961.02
1017.143	1922.15
1017.435	1896.16
1017.727	1882.38
1018.018	1886.22
1018.31	1854.81
1018.602	1868.14
1018.893	1874.24
1019.185	1836.51
1019.476	1845.32
1019.767	1796.73
1020.058	1818.65
1020.35	1796.73
1020.641	1771.42
1020.932	1736.62
1021.223	1748.37
1021.514	1733.01
1021.804	1747.47
1022.095	1726
1022.386	1710.63
1022.677	1706.57
1022.967	1689.39
1023.258	1680.35
1023.548	1641.48
1023.839	1644.19
1024.129	1667.02
1024.419	1613.91
1024.709	1649.17
1025	1608.04
1025.29	1556.06
1025.58	1593.12
1025.87	1580.47
1026.16	1571.88
1026.449	1546.12
1026.739	1547.47
1027.029	1545.44
1027.319	1540.69
1027.608	1505.21
1027.898	1499.79
1028.187	1478.1
1028.477	1488.72
1028.766	1490.98
1029.055	1477.87
1029.344	1451.43
1029.634	1425.22
1029.923	1414.37
1030.212	1425.67
1030.501	1387.03
1030.79	1415.27
1031.078	1395.39
1031.367	1376.63
1031.656	1388.61
1031.945	1358.78
1032.233	1359.68
1032.522	1360.13
1032.81	1323.07
1033.099	1342.51
1033.387	1344.09
1033.675	1309.97
1033.963	1323.3
1034.251	1309.97
1034.54	1299.8
1034.828	1277.2
1035.116	1276.75
1035.403	1260.93
1035.691	1255.5
1035.979	1251.44
1036.267	1256.86
1036.554	1226.35
1036.842	1195.84
1037.129	1186.13
1037.417	1208.27
1037.704	1197.43
1037.992	1174.83
1038.279	1175.73
1038.566	1171.89
1038.853	1171.89
1039.14	1171.89
