Data from 7726_FLMS001491_002.txt Node
Date: Thu Apr 19 15:16:52 BST 2018
User: hsy
Spectrometer: FLMS00149
Trigger mode: 0
Integration Time (sec): 1.000000E-2
Scans to average: 10
Electric dark correction enabled: true
Nonlinearity correction enabled: false
Boxcar width: 0
XAxis mode: Wavelengths
Number of Pixels in Spectrum: 2048
>>>>>Begin Spectral Data<<<<<
341.393	-12.03
341.776	-12.03
342.16	-12.03
342.543	-40.06
342.927	-56.1
343.31	-69.21
343.693	-55.42
344.077	-78.25
344.46	-78.02
344.843	-54.29
345.226	-51.81
345.61	-26.27
345.993	-24.69
346.376	0.85
346.759	13.73
347.142	34.29
347.525	46.95
347.908	68.64
348.291	79.94
348.674	99.15
349.057	94.4
349.44	114.74
349.823	130.56
350.206	173.5
350.588	225.47
350.971	248.3
351.354	261.18
351.737	272.93
352.119	294.85
352.502	283.55
352.884	299.14
353.267	329.88
353.65	332.14
354.032	339.82
354.414	346.15
354.797	338.47
355.179	357
355.562	363.32
355.944	382.98
356.326	337.11
356.709	370.33
357.091	361.52
357.473	363.55
357.855	357.22
358.238	369.2
358.62	394.74
359.002	379.37
359.384	380.05
359.766	400.16
360.148	401.06
360.53	384.79
360.912	369.65
361.294	357.22
361.676	387.28
362.057	387.73
362.439	380.72
362.821	379.82
363.203	373.04
363.584	375.75
363.966	377.56
364.348	385.02
364.729	368.07
365.111	371.91
365.493	373.27
365.874	371.46
366.256	378.46
366.637	400.61
367.019	365.81
367.4	367.17
367.781	368.97
368.163	363.55
368.544	354.51
368.925	360.61
369.306	368.3
369.688	374.85
370.069	392.7
370.45	383.44
370.831	396.54
371.212	375.98
371.593	388.18
371.974	368.07
372.355	380.27
372.736	403.55
373.117	392.48
373.498	375.98
373.879	374.85
374.26	372.36
374.641	381.85
375.021	386.83
375.402	387.28
375.783	401.51
376.163	411.91
376.544	421.85
376.925	408.29
377.305	418.92
377.686	423.44
378.066	413.27
378.447	444.45
378.827	404.9
379.208	408.75
379.588	427.73
379.968	436.09
380.349	429.99
380.729	440.16
381.109	443.55
381.489	444.45
381.87	438.8
382.25	436.09
382.63	437.45
383.01	422.31
383.39	444.23
383.77	448.97
384.15	460.5
384.53	444.23
384.91	463.21
385.29	469.76
385.67	458.24
386.049	471.34
386.429	440.84
386.809	451.01
387.189	463.89
387.568	476.09
387.948	468.41
388.328	497.33
388.707	495.52
389.087	497.56
389.466	505.69
389.846	510.44
390.225	489.2
390.605	511.57
390.984	502.53
391.363	522.87
391.743	521.74
392.122	528.29
392.501	523.32
392.881	525.35
393.26	518.8
393.639	534.62
394.018	528.97
394.397	534.39
394.776	560.61
395.155	546.14
395.534	557.22
395.913	540.72
396.292	569.42
396.671	552.47
397.05	587.72
397.429	575.75
397.808	584.79
398.186	598.12
398.565	593.83
398.944	610.77
399.323	596.54
399.701	599.7
400.08	620.94
400.458	594.5
400.837	624.79
401.215	626.14
401.594	631.11
401.972	629.76
402.351	635.63
402.729	641.28
403.107	650.77
403.486	626.59
403.864	676.99
404.242	646.48
404.62	667.95
404.999	703.65
405.377	700.26
405.755	695.29
406.133	702.75
406.511	684.45
406.889	720.6
407.267	714.95
407.645	732.58
408.023	736.42
408.401	725.35
408.779	741.62
409.156	763.31
409.534	754.27
409.912	750.43
410.29	763.09
410.667	774.39
411.045	816.19
411.422	797.66
411.8	821.39
412.178	829.98
412.555	815.29
412.933	804.89
413.31	842.18
413.687	858.9
414.065	857.32
414.442	862.52
414.819	885.57
415.197	876.53
415.574	889.64
415.951	885.8
416.328	904.1
416.705	889.19
417.082	913.59
417.46	925.57
417.837	934.83
418.214	935.06
418.591	943.65
418.967	944.55
419.344	951.33
419.721	977.09
420.098	969.18
420.475	971.67
420.852	988.62
421.228	1012.8
421.605	1023.87
421.982	1013.7
422.358	1036.98
422.735	1058.22
423.111	1019.35
423.488	1058.9
423.864	1054.61
424.241	1065.68
424.617	1075.85
424.994	1070.42
425.37	1098.67
425.746	1102.29
426.123	1122.4
426.499	1115.39
426.875	1138.22
427.251	1140.25
427.627	1170.76
428.003	1182.96
428.379	1185.45
428.756	1192
429.132	1229.74
429.507	1185
429.883	1239.68
430.259	1266.35
430.635	1279.46
431.011	1273.81
431.387	1303.86
431.763	1324.65
432.138	1333.92
432.514	1333.69
432.89	1352.22
433.265	1345.22
433.641	1401.71
434.016	1388.38
434.392	1437.87
434.767	1461.37
435.143	1472.45
435.518	1489.17
435.894	1490.98
436.269	1498.89
436.644	1507.47
437.02	1535.5
437.395	1537.53
437.77	1514.71
438.145	1567.36
438.52	1565.33
438.895	1593.8
439.271	1599
439.646	1610.97
440.021	1657.08
440.395	1659.33
440.77	1637.19
441.145	1643.06
441.52	1676.96
441.895	1682.61
442.27	1723.06
442.645	1713.12
443.019	1712.67
443.394	1734.36
443.769	1735.49
444.143	1723.29
444.518	1746.34
444.892	1740.46
445.267	1762.16
445.641	1787.02
446.016	1807.58
446.39	1793.79
446.764	1825.43
447.139	1822.04
447.513	1831.99
447.887	1836.51
448.262	1864.08
448.636	1854.81
449.01	1892.55
449.384	1911.08
449.758	1922.83
450.132	1925.32
450.506	1962.15
450.88	1982.94
451.254	1972.32
451.628	2034.47
452.002	2050.06
452.376	2018.87
452.75	2086.22
453.123	2107.68
453.497	2128.93
453.871	2126.67
454.244	2170.28
454.618	2184.07
454.992	2242.82
455.365	2258.64
455.739	2266.1
456.112	2320.33
456.486	2345.42
456.859	2335.25
457.232	2382.03
457.606	2426.77
457.979	2427.45
458.352	2460.9
458.725	2505.87
459.099	2521.23
459.472	2558.29
459.845	2588.12
460.218	2610.04
460.591	2667.22
460.964	2684.17
461.337	2687.33
461.71	2749.7
462.083	2799.42
462.456	2793.99
462.829	2828.12
463.201	2862.92
463.574	2868.12
463.947	2918.74
464.32	2967.1
464.692	2979.98
465.065	3017.94
465.438	3035.34
465.81	3078.96
466.183	3100.65
466.555	3181.78
466.928	3213.64
467.3	3172.74
467.672	3250.48
468.045	3320.31
468.417	3310.59
468.789	3356.47
469.161	3375.67
469.534	3471.26
469.906	3564.6
470.278	3537.25
470.65	3575.22
471.022	3650.47
471.394	3714.65
471.766	3716.23
472.138	3793.74
472.51	3860.63
472.882	3942.44
473.253	3963.68
473.625	4034.87
473.997	4117.58
474.369	4117.12
474.74	4172.72
475.112	4244.13
475.484	4351.02
475.855	4444.35
476.227	4441.18
476.598	4578.13
476.97	4609.09
477.341	4675.98
477.713	4802.53
478.084	4784
478.455	4966.14
478.827	4981.28
479.198	5130.43
479.569	5156.42
479.94	5274.16
480.311	5361.38
480.682	5535.84
481.053	5582.62
481.424	5725.67
481.795	5764.76
482.166	5816.74
482.537	5965.44
482.908	6073.23
483.279	6160.46
483.65	6294.92
484.021	6448.36
484.391	6500.34
484.762	6633.89
485.133	6701.24
485.503	6852.64
485.874	6932.64
486.244	7060.32
486.615	7172.41
486.985	7358.39
487.356	7453.31
487.726	7496.92
488.097	7772.62
488.467	7761.32
488.837	7983.91
489.207	8107.3
489.578	8242.21
489.948	8396.11
490.318	8567.18
490.688	8676.78
491.058	8818.69
491.428	9034.73
491.798	9070.67
492.168	9271.79
492.538	9435.85
492.908	9535.29
493.278	9726.24
493.648	9787.71
494.017	10041.04
494.387	10106.8
494.757	10285.77
495.126	10429.73
495.496	10537.97
495.866	10684.63
496.235	10815.48
496.605	11016.15
496.974	11126.43
497.344	11314.45
497.713	11426.31
498.082	11607.55
498.452	11742.46
498.821	11961.21
499.19	12021.55
499.559	12205.27
499.928	12372.05
500.298	12521.2
500.667	12711.02
501.036	12744.69
501.405	12933.84
501.774	13066.72
502.143	13259.03
502.512	13470.55
502.88	13676.65
503.249	13715.52
503.618	13927.03
503.987	14014.94
504.356	14195.28
504.724	14474.82
505.093	14509.39
505.462	14641.14
505.83	14885.88
506.199	14987.57
506.567	15302.82
506.936	15371.29
507.304	15545.52
507.672	15771.51
508.041	15850.15
508.409	16182.12
508.777	16179.63
509.145	16409.91
509.514	16533.52
509.882	16702.56
510.25	16886.05
510.618	16957.24
510.986	17023.22
511.354	17285.59
511.722	17469.54
512.09	17660.95
512.458	17618.46
512.826	17965.35
513.193	18048.96
513.561	18210.99
513.929	18339.35
514.297	18414.6
514.664	18615.27
515.032	18768.94
515.4	18942.72
515.767	19065.43
516.135	19122.15
516.502	19245.09
516.869	19503.39
517.237	19618.86
517.604	19523.95
517.972	19833.77
518.339	19935.69
518.706	20076.25
519.073	20162.58
519.44	20317.38
519.808	20454.55
520.175	20622.9
520.542	20869.45
520.909	20955.55
521.276	21058.82
521.643	21274.19
522.009	21409.55
522.376	21505.59
522.743	21676.21
523.11	21977.22
523.477	22078.46
523.843	22174.05
524.21	22428.73
524.577	22550.09
524.943	22758.44
525.31	22834.37
525.676	23079.79
526.043	23239.78
526.409	23288.14
526.776	23494.69
527.142	23635.03
527.508	23641.81
527.874	23949.82
528.241	24095.58
528.607	24089.25
528.973	24284.05
529.339	24354.56
529.705	24598.17
530.071	24811.95
530.437	24973.3
530.803	24802.91
531.169	25028.66
531.535	25039.74
531.901	25253.97
532.267	25084.26
532.632	25453.29
532.998	25545.26
533.364	25489.44
533.73	25619.38
534.095	25774.86
534.461	25806.5
534.826	25911.35
535.192	25880.84
535.557	26111.35
535.923	26023.89
536.288	26214.17
536.653	26249.42
537.019	26225.69
537.384	26166.26
537.749	26379.14
538.114	26408.97
538.479	26271.12
538.845	26433.37
539.21	26352.24
539.575	26428.4
539.94	26527.38
540.305	26539.58
540.67	26514.73
541.034	26597.21
541.399	26570.09
541.764	26725.12
542.129	26675.17
542.494	26693.48
542.858	26712.24
543.223	26665.46
543.587	26888.73
543.952	26705.91
544.316	26894.15
544.681	26674.04
545.045	26970.08
545.41	26864.1
545.774	26869.07
546.138	27001.27
546.503	26935.51
546.867	27001.04
547.231	27146.8
547.595	27076.97
547.959	27244.65
548.324	27223.18
548.688	27191.77
549.052	27153.13
549.416	27024.77
549.779	27177.99
550.143	27276.51
550.507	27358.09
550.871	27359.68
551.235	27242.17
551.599	27487.36
551.962	27500.46
552.326	27518.99
552.689	27563.74
553.053	27425.66
553.417	27514.25
553.78	27838.76
554.143	27660.01
554.507	27722.38
554.87	27792.89
555.234	28036.95
555.597	27769.38
555.96	27946.1
556.323	28055.03
556.686	27984.97
557.05	28122.14
557.413	28025.2
557.776	28116.72
558.139	28276.94
558.502	28246.43
558.865	28376.37
559.228	28483.49
559.59	28632.64
559.953	28562.36
560.316	28793.76
560.679	28789.92
561.041	28831.73
561.404	29105.17
561.767	29161.21
562.129	28996.24
562.492	29329.79
562.854	29305.84
563.217	29323.69
563.579	29380.64
563.941	29450.24
564.304	29662.67
564.666	29694.3
565.028	29787.18
565.39	29873.28
565.753	30014.07
566.115	30030.34
566.477	30240.5
566.839	30267.62
567.201	30518.24
567.563	30457.45
567.925	30639.14
568.287	30568.63
568.648	30810.21
569.01	30871.22
569.372	31128.39
569.734	31140.37
570.095	31207.48
570.457	31470.08
570.819	31390.98
571.18	31433.24
571.542	31727.92
571.903	31543.07
572.265	31638.21
572.626	31868.71
572.987	31796.62
573.349	31977.63
573.71	31962.04
574.071	32093.34
574.432	32117.52
574.794	32352.77
575.155	32338.98
575.516	32310.28
575.877	32395.7
576.238	32377.4
576.599	32669.37
576.96	32541.91
577.32	32623.27
577.681	32729.93
578.042	32796.14
578.403	32754.11
578.763	32699.65
579.124	32762.47
579.485	32993.43
579.845	32821.68
580.206	32791.85
580.566	32755.69
580.927	32844.5
581.287	32901
581.648	32772.87
582.008	32950.49
582.368	32940.55
582.728	32829.36
583.089	32976.7
583.449	33007.44
583.809	32899.64
584.169	32985.52
584.529	32817.16
584.889	32951.85
585.249	32830.94
585.609	32731.51
585.969	32878.63
586.329	32802.7
586.688	32929.93
587.048	32918.4
587.408	32873.2
587.768	32725.64
588.127	32709.37
588.487	32700.33
588.846	32959.98
589.206	32544.17
589.565	32519.99
589.925	32712.3
590.284	32680.67
590.643	32565.19
591.003	32547.11
591.362	32668.69
591.721	32575.36
592.08	32551.86
592.44	32628.46
592.799	32492.65
593.158	32455.36
593.517	32480.45
593.876	32556.15
594.235	32426.21
594.593	32524.96
594.952	32487.45
595.311	32375.36
595.67	32502.82
596.029	32616.04
596.387	32582.14
596.746	32717.73
597.104	32367.91
597.463	32441.8
597.822	32701.23
598.18	32400.22
598.538	32490.61
598.897	32650.38
599.255	32409.03
599.613	32843.37
599.972	32498.07
600.33	32667.33
600.688	32788.46
601.046	32696.94
601.404	32772.87
601.762	32571.29
602.12	32635.92
602.478	32734.45
602.836	32737.39
603.194	32494
603.552	32604.96
603.91	32573.1
604.268	32805.41
604.625	32761.57
604.983	32787.56
605.341	32686.09
605.698	32878.18
606.056	32917.5
606.413	32734.22
606.771	32847.44
607.128	32897.16
607.485	32827.55
607.843	32874.79
608.2	33016.02
608.557	33031.84
608.914	32967.89
609.272	33054.89
609.629	33247.43
609.986	33291.05
610.343	33230.48
610.7	33427.77
611.057	33248.11
611.414	33283.59
611.771	33508.21
612.127	33406.75
612.484	33507.76
612.841	33610.36
613.198	33516.58
613.554	33512.06
613.911	33687.65
614.267	33820.98
614.624	33722.22
614.98	33767.87
615.337	34053.29
615.693	33906.4
616.05	33873.18
616.406	34100.06
616.762	33978.49
617.118	34064.81
617.475	33836.57
617.831	34115.43
618.187	34082.66
618.543	34225.26
618.899	34454.86
619.255	34315.88
619.611	34313.39
619.967	34431.35
620.323	34455.31
620.678	34439.04
621.034	34343.67
621.39	34347.51
621.746	34366.27
622.101	34752.48
622.457	34371.7
622.812	34622.31
623.168	34527.62
623.523	34497.57
623.879	34704.79
624.234	34486.27
624.589	34571.24
624.945	34583.67
625.3	34673.61
625.655	34519.04
626.01	34646.26
626.365	34617.11
626.72	34543.44
627.075	34589.99
627.43	34638.81
627.785	34573.27
628.14	34629.09
628.495	34599.03
628.85	34668.18
629.205	34565.36
629.559	34726.04
629.914	34677.9
630.269	34607.4
630.623	34323.11
630.978	34276.56
631.332	34608.3
631.687	34463.22
632.041	34304.13
632.396	34346.84
632.75	34384.35
633.104	34366.05
633.459	34060.06
633.813	34113.85
634.167	34069.78
634.521	34090.12
634.875	34138.25
635.229	33926.96
635.583	33919.73
635.937	33936.23
636.291	33751.6
636.645	33840.64
636.999	33680.19
637.352	33819.39
637.706	33482.45
638.06	33666.63
638.413	33567.42
638.767	33350.25
639.121	33658.49
639.474	33470.93
639.828	33477.71
640.181	33356.35
640.534	33619.4
640.888	33277.03
641.241	33141.67
641.594	33278.62
641.947	33371.27
642.301	33201.78
642.654	33193.87
643.007	33130.15
643.36	33081.33
643.713	32968.79
644.066	33192.52
644.419	32882.92
644.771	32475.47
645.124	32244.29
645.477	32305.53
645.83	32195.03
646.182	32207.91
646.535	32185.31
646.888	32262.82
647.24	32041.13
647.593	32310.28
647.945	32156.39
648.298	31919.1
648.65	31999.78
649.002	31502.17
649.355	31546.91
649.707	31374.49
650.059	31441.15
650.411	31845.89
650.763	32073.22
651.115	32649.03
651.467	32456.72
651.819	32451.75
652.171	32396.15
652.523	32375.59
652.875	32411.52
653.227	32328.58
653.578	32419.43
653.93	32395.48
654.282	32164.75
654.633	32219.44
654.985	32411.07
655.337	32423.05
655.688	32275.71
656.039	32347.79
656.391	32202.26
656.742	32214.24
657.094	32254.01
657.445	32073.22
657.796	32233.45
658.147	32168.59
658.498	32280.9
658.849	32282.94
659.2	32164.07
659.551	32067.35
659.902	32247.68
660.253	32131.53
660.604	32346.89
660.955	32174.46
661.306	32199.1
661.656	32168.14
662.007	32258.98
662.358	32110.74
662.708	32117.52
663.059	32097.18
663.409	32064.64
663.76	32361.8
664.11	32233.67
664.461	32302.15
664.811	32357.06
665.161	32299.66
665.511	32124.3
665.862	32139.89
666.212	32398.64
666.562	32355.7
666.912	32190.96
667.262	32238.19
667.612	32104.18
667.962	32260.56
668.312	32193.9
668.662	32326.55
669.011	32235.93
669.361	32273.45
669.711	32435.47
670.06	32343.05
670.41	32147.57
670.76	32162.04
671.109	32386.21
671.459	32163.17
671.808	32046.33
672.157	32154.58
672.507	32054.24
672.856	32015.15
673.205	32117.52
673.554	32092.21
673.904	31986.22
674.253	32247.46
674.602	32105.09
674.951	31644.08
675.3	31497.42
675.649	31975.83
675.998	31920.23
676.346	31922.04
676.695	31990.06
677.044	31797.75
677.393	31917.07
677.741	32068.48
678.09	31878.88
678.438	31634.59
678.787	31713.46
679.135	31779.9
679.484	31762.5
679.832	31758.2
680.181	31648.15
680.529	31574.03
680.877	31527.93
681.225	31450.19
681.573	31572.22
681.922	31208.61
682.27	31326.13
682.618	31278.44
682.966	31245.22
683.314	31207.48
683.661	31142.85
684.009	31117.77
684.357	30997.09
684.705	30903.76
685.053	31046.13
685.4	30940.15
685.748	30849.75
686.095	30802.07
686.443	30609.31
686.79	30637.56
687.138	30607.73
687.485	30474.85
687.832	30422.19
688.18	30441.85
688.527	30398.24
688.874	30227.62
689.221	30186.04
689.568	30065.14
689.915	29958.93
690.262	30059.49
690.609	29805.49
690.956	29770.01
691.303	29713.29
691.65	29540.64
691.997	29458.15
692.344	29372.5
692.69	29295.9
693.037	29349
693.383	28970.93
693.73	29043.02
694.077	28886.64
694.423	28894.55
694.769	28866.76
695.116	28747.66
695.462	28545.63
695.808	28563.03
696.155	28599.42
696.501	28328.24
696.847	28399.42
697.193	28158.98
697.539	28081.92
697.885	27984.07
698.231	27873.56
698.577	27702.49
698.923	27758.99
699.269	27549.28
699.614	27639.22
699.96	27301.15
700.306	27404.87
700.651	27207.82
700.997	26973.7
701.342	27045.11
701.688	27003.75
702.033	26970.76
702.379	26833.81
702.724	26633.82
703.069	26707.26
703.415	26446.03
703.76	26414.84
704.105	26456.42
704.45	26264.34
704.795	26145.7
705.14	26133.27
705.485	26049.2
705.83	25890.34
706.175	26020.5
706.52	25960.62
706.865	25790.45
707.209	25783.45
707.554	25794.29
707.899	25686.5
708.243	25510.69
708.588	25504.81
708.932	25414.19
709.277	25395.89
709.621	25340.75
709.966	25083.58
710.31	25134.65
710.654	24971.26
710.998	24942.34
711.342	25138.72
711.687	24978.04
712.031	24985.73
712.375	24896.46
712.719	24782.79
713.063	24686.98
713.407	24779.63
713.75	24602.69
714.094	24667.09
714.438	24497.6
714.782	24540.77
715.125	24365.18
715.469	24580.31
715.812	24333.31
716.156	24339.19
716.499	24261
716.843	24315.91
717.186	24233.66
717.53	24234.33
717.873	24228.68
718.216	24177.84
718.559	24037.73
718.902	23874.8
719.246	23916.38
719.589	23941.69
719.932	23810.16
720.275	23949.82
720.617	23805.65
720.96	23772.43
721.303	23774.69
721.646	23831.86
721.989	23764.97
722.331	23746.89
722.674	23705.76
723.016	23774.91
723.359	23635.71
723.701	23735.82
724.044	23617.85
724.386	23485.88
724.729	23528.82
725.071	23623.96
725.413	23519.55
725.755	23457.86
726.097	23377.63
726.439	23322.04
726.782	23390.51
727.124	23477.29
727.465	23473.45
727.807	23390.74
728.149	23388.93
728.491	23328.14
728.833	23357.07
729.175	23312.1
729.516	23374.24
729.858	23272.55
730.199	23321.14
730.541	23391.64
730.882	23261.93
731.224	23374.24
731.565	23278.88
731.906	23307.81
732.248	23409.27
732.589	23249.05
732.93	23152.78
733.271	23290.86
733.612	23158.88
733.953	23339.67
734.294	23186
734.635	23223.74
734.976	23358.2
735.317	23261.7
735.658	23252.21
735.999	23257.64
736.339	23177.19
736.68	23286.79
737.021	23209.5
737.361	23251.54
737.702	23408.37
738.042	23301.48
738.383	23471.87
738.723	23447.46
739.063	23332.66
739.404	23484.98
739.744	23449.72
740.084	23406.56
740.424	23575.14
740.764	23511.87
741.104	23658.53
741.444	23620.11
741.784	23567.46
742.124	23697.4
742.464	23702.15
742.804	23842.93
743.143	23721.58
743.483	23870.95
743.823	23816.04
744.162	23810.84
744.502	23910.28
744.841	23912.08
745.181	24078.18
745.52	24051.29
745.86	24167.44
746.199	24279.98
746.538	24366.08
746.877	24382.81
747.216	24484.95
747.556	24415.57
747.895	24587.77
748.234	24676.81
748.573	24629.35
748.911	24789.35
749.25	24858.72
749.589	24929.68
749.928	25105.27
750.267	25173.97
750.605	25216.91
750.944	25318.15
751.283	25442.44
751.621	25515.66
751.96	25541.19
752.298	25716.78
752.636	25791.36
752.975	25963.33
753.313	25959.26
753.651	26264.11
753.989	26274.96
754.327	26410.55
754.666	26298.46
755.004	26552.47
755.342	26707.49
755.679	26908.61
756.017	26906.13
756.355	27085.56
756.693	27060.93
757.031	27249.4
757.368	27150.19
757.706	27348.83
758.044	27341.6
758.381	27484.64
758.719	27587.24
759.056	27823.62
759.394	27806.22
759.731	27741.81
760.068	27895.93
760.405	28059.54
760.743	28042.6
761.08	28217.28
761.417	28207.56
761.754	28308.8
762.091	28376.37
762.428	28350.16
762.765	28360.1
763.102	28544.96
763.438	28572.75
763.775	28506.76
764.112	28671.51
764.449	28663.14
764.785	28726.19
765.122	28715.35
765.458	28738.85
765.795	28853.65
766.131	28864.72
766.467	28923.48
766.804	28807.32
767.14	28785.4
767.476	28748.34
767.812	28892.74
768.148	29062.68
768.485	28897.04
768.821	28898.62
769.157	28816.13
769.492	28891.16
769.828	28838.51
770.164	28764.84
770.5	28750.15
770.836	28756.7
771.171	28782.01
771.507	28732.07
771.842	28626.76
772.178	28623.37
772.513	28530.49
772.849	28561
773.184	28442.81
773.519	28501.79
773.855	28454.79
774.19	28400.55
774.525	28291.18
774.86	28297.96
775.195	28293.21
775.53	28154.23
775.865	28030.17
776.2	27929.38
776.535	27782.26
776.87	27780.23
777.205	27622.04
777.539	27607.81
777.874	27657.75
778.209	27485.1
778.543	27516.73
778.878	27402.84
779.212	27449.62
779.547	27401.48
779.881	27225.67
780.215	27011.66
780.55	27147.25
780.884	26798.79
781.218	26879.46
781.552	26952.91
781.886	26768.73
782.22	26660.26
782.554	26562.41
782.888	26319.48
783.222	26384.33
783.556	26162.19
783.889	26302.3
784.223	26172.59
784.557	26162.65
784.89	26139.6
785.224	25926.27
785.557	25863.44
785.891	25757.91
786.224	25750.45
786.558	25683.34
786.891	25549.78
787.224	25397.02
787.557	25284.93
787.891	25274.31
788.224	25061.43
788.557	25164.48
788.89	25191.82
789.223	25136.91
789.556	25021.43
789.888	24877.26
790.221	24756.58
790.554	24763.59
790.887	24763.13
791.219	24495.34
791.552	24595.91
791.884	24396.82
792.217	24344.39
792.549	24225.07
792.882	24059.65
793.214	24027.33
793.546	24034.79
793.879	24024.62
794.211	23715.03
794.543	23888.81
794.875	23793.67
795.207	23707.34
795.539	23775.59
795.871	23692.88
796.203	23478.65
796.535	23416.05
796.867	23444.3
797.198	23255.6
797.53	23272.1
797.862	23051.54
798.193	23233.23
798.525	22980.81
798.856	23075.27
799.188	22840.47
799.519	22786.91
799.85	22598.67
800.182	22644.55
800.513	22689.06
800.844	22371.11
801.175	22549.86
801.506	22505.79
801.837	22448.39
802.168	22311.45
802.499	22354.38
802.83	22094.28
803.161	22037.1
803.491	22088.18
803.822	22139.02
804.153	21910.55
804.483	21826.71
804.814	21767.96
805.145	21803.44
805.475	21839.37
805.805	21736.32
806.136	21710.11
806.466	21569.77
806.796	21510.11
807.126	21381.53
807.457	21416.33
807.787	21379.72
808.117	21335.43
808.447	21179.5
808.777	21364.81
809.107	21153.51
809.436	21109.44
809.766	21053.18
810.096	21063.34
810.426	21032.38
810.755	20917.59
811.085	20933.4
811.414	20960.07
811.744	20806.63
812.073	20775.67
812.403	20786.06
812.732	20598.5
813.061	20723.24
813.39	20499.29
813.719	20501.1
814.049	20698.61
814.378	20505.85
814.707	20428.33
815.036	20422.91
815.365	20295.68
815.693	20255.46
816.022	20090.94
816.351	20182.46
816.68	20100.43
817.008	20218.17
817.337	19998.06
817.665	19962.81
817.994	20000.55
818.322	20031.96
818.651	19970.27
818.979	19791.97
819.307	20017.72
819.636	19852.3
819.964	19742.7
820.292	19690.95
820.62	19752.64
820.948	19736.37
821.276	19754.9
821.604	19744.96
821.932	19807.11
822.259	19709.93
822.587	19743.83
822.915	19696.15
823.243	19728.24
823.57	19728.24
823.898	19826.99
824.225	19714.68
824.553	19714.91
824.88	19725.07
825.207	19784.73
825.535	19677.84
825.862	19779.76
826.189	19540.22
826.516	19916.26
826.843	19868.57
827.17	19803.04
827.497	19822.47
827.824	19779.31
828.151	19826.99
828.478	19650.5
828.805	19803.49
829.131	19798.29
829.458	19820.89
829.785	19736.37
830.111	19734.57
830.438	19872.87
830.764	19831.74
831.09	19902.7
831.417	19641.23
831.743	19838.52
832.069	19719.2
832.395	19775.02
832.722	19772.76
833.048	19655.7
833.374	19756.94
833.7	19679.43
834.026	19725.98
834.351	19565.53
834.677	19711.06
835.003	19563.27
835.329	19604.63
835.654	19627.45
835.98	19475.59
836.306	19650.05
836.631	19478.08
836.956	19598.07
837.282	19508.36
837.607	19529.6
837.932	19437.4
838.258	19533.22
838.583	19387
838.908	19363.73
839.233	19431.07
839.558	19272.43
839.883	19299.78
840.208	19180.91
840.533	19347.91
840.858	19135.71
841.182	19265.88
841.507	19161.47
841.832	19079.89
842.156	19225.88
842.481	19083.28
842.805	19035.15
843.13	18945.21
843.454	18935.49
843.778	18893.01
844.103	18778.88
844.427	18843.74
844.751	18773.46
845.075	18825.66
845.399	18735.95
845.723	18668.38
846.047	18705.67
846.371	18589.96
846.695	18493.47
847.019	18514.26
847.343	18319.01
847.666	18275.85
847.99	18169.64
848.313	18101.84
848.637	18040.15
848.96	18065.01
849.284	18055.06
849.607	17904.78
849.931	17842.41
850.254	17729.42
850.577	17638.12
850.9	17525.81
851.223	17584.79
851.546	17418.02
851.869	17350
852.192	17452.14
852.515	17210.34
852.838	17063.9
853.161	17097.35
853.483	16942.1
853.806	16993.17
854.129	16914.3
854.451	16943.68
854.774	16841.53
855.096	16760.63
855.419	16756.57
855.741	16636.79
856.063	16581.2
856.385	16541.43
856.708	16456.46
857.03	16460.53
857.352	16500.75
857.674	16463.92
857.996	16268.89
858.318	16217.6
858.64	16245.17
858.961	16138.5
859.283	16018.05
859.605	16034.32
859.926	15980.31
860.248	16080.65
860.57	15873.42
860.891	15968.79
861.212	15884.5
861.534	15843.14
861.855	15823.26
862.176	15787.78
862.498	15823.03
862.819	15789.58
863.14	15697.84
863.461	15608.35
863.782	15593.43
864.103	15611.96
864.424	15574.45
864.745	15714.78
865.065	15535.13
865.386	15434.57
865.707	15448.35
866.027	15447.67
866.348	15488.8
866.668	15456.71
866.989	15432.98
867.309	15288.58
867.63	15364.29
867.95	15332.87
868.27	15194.8
868.59	15239.09
868.91	15279.77
869.23	15189.83
869.55	15060.79
869.87	15166.1
870.19	15071.86
870.51	15097.17
870.83	15091.75
871.15	14984.63
871.469	15004.52
871.789	15012.88
872.109	15040.23
872.428	14910.29
872.748	14851.08
873.067	14933.79
873.386	14891.98
873.706	14839.78
874.025	14768.82
874.344	14778.09
874.663	14850.63
874.982	14796.39
875.301	14714.58
875.62	14615.83
875.939	14607.47
876.258	14590.07
876.577	14546.45
876.896	14585.32
877.214	14597.75
877.533	14560.01
877.852	14492.67
878.17	14596.85
878.489	14561.59
878.807	14470.98
879.125	14457.64
879.444	14405.89
879.762	14278.21
880.08	14474.14
880.398	14356.18
880.716	14402.5
881.034	14213.58
881.352	14287.7
881.67	14140.81
881.988	14221.72
882.306	14202.51
882.624	14112.11
882.941	14070.31
883.259	14016.75
883.577	14160.48
883.894	14026.92
884.212	13971.33
884.529	13867.83
884.846	13959.12
885.164	13841.61
885.481	13785.34
885.798	13932.01
886.115	13754.84
886.432	13881.61
886.75	13837.32
887.067	13747.83
887.383	13757.55
887.7	13667.15
888.017	13562.98
888.334	13543.09
888.651	13524.33
888.967	13611.56
889.284	13375.86
889.6	13470.32
889.917	13376.54
890.233	13414.05
890.55	13311.91
890.866	13297
891.182	13280.95
891.498	13228.52
891.815	13117.11
892.131	13095.87
892.447	13114.17
892.763	13010.45
893.079	13014.52
893.395	12911.47
893.71	12961.86
894.026	12942.88
894.342	13023.78
894.657	12842.09
894.973	12798.93
895.289	12744.02
895.604	12696.78
895.92	12603.91
896.235	12589.22
896.55	12616.11
896.865	12594.64
897.181	12576.79
897.496	12474.19
897.811	12409.79
898.126	12420.41
898.441	12352.61
898.756	12382.22
899.071	12233.75
899.386	12266.97
899.7	12203.24
900.015	12134.99
900.33	12013.19
900.644	11977.93
900.959	11998.72
901.273	11930.93
901.588	11925.73
901.902	11851.38
902.216	11825.4
902.531	11765.06
902.845	11750.59
903.159	11656.59
903.473	11646.19
903.787	11539.08
904.101	11544.5
904.415	11544.72
904.729	11484.16
905.042	11362.13
905.356	11359.42
905.67	11396.03
905.984	11275.35
906.297	11324.84
906.611	11236.03
906.924	11161.68
907.237	11092.08
907.551	11117.39
907.864	11013.89
908.177	11014.12
908.491	10972.31
908.804	10892.99
909.117	10862.48
909.43	10709.27
909.743	10769.6
910.056	10748.59
910.368	10724.86
910.681	10679.66
910.994	10633.56
911.307	10551.98
911.619	10469.27
911.932	10465.21
912.244	10350.63
912.557	10400.8
912.869	10353.34
913.181	10276.28
913.494	10299.11
913.806	10195.83
914.118	10140.92
914.43	10168.26
914.742	10159
915.054	10026.35
915.366	9995.84
915.678	9893.92
915.99	9863.64
916.302	9910.87
916.613	9838.1
916.925	9810.53
917.236	9775.96
917.548	9739.57
917.859	9671.1
918.171	9668.84
918.482	9544.55
918.794	9564.44
919.105	9557.66
919.416	9431.56
919.727	9462.75
920.038	9439.7
920.349	9342.75
920.66	9309.53
920.971	9330.32
921.282	9318.12
921.593	9244.45
921.903	9159.48
922.214	9131.45
922.525	9070.44
922.835	9107.27
923.146	9063.43
923.456	8985.47
923.767	9021.63
924.077	9022.53
924.387	8901.18
924.697	8873.38
925.008	8852.37
925.318	8816.89
925.628	8746.15
925.938	8724.46
926.248	8694.18
926.558	8622.77
926.867	8592.03
927.177	8663.67
927.487	8547.74
927.796	8532.83
928.106	8524.92
928.416	8467.29
928.725	8479.04
929.034	8391.81
929.344	8377.35
929.653	8354.53
929.962	8278.14
930.271	8240.4
930.581	8247.86
930.89	8208.54
931.199	8114.98
931.508	8101.2
931.817	8125.83
932.125	8057.13
932.434	8011.94
932.743	7907.76
933.051	7893.97
933.36	7954.76
933.669	7802
933.977	7800.42
934.286	7824.6
934.594	7772.62
934.902	7675.9
935.21	7695.33
935.519	7652.4
935.827	7674.77
936.135	7566.52
936.443	7508.45
936.751	7497.6
937.059	7525.4
937.367	7393.87
937.674	7475.23
937.982	7369.24
938.29	7343.03
938.597	7305.29
938.905	7260.54
939.213	7261.22
939.52	7236.82
939.827	7219.41
940.135	7139.19
940.442	7124.95
940.749	7074.79
941.056	7115.91
941.363	7016.93
941.67	7044.28
941.977	7009.25
942.284	6862.81
942.591	6925.86
942.898	6909.82
943.205	6850.38
943.511	6811.74
943.818	6850.16
944.125	6756.83
944.431	6717.06
944.738	6712.08
945.044	6720.22
945.35	6595.25
945.657	6648.36
945.963	6629.15
946.269	6608.13
946.575	6551.86
946.881	6494.46
947.187	6502.82
947.493	6384.18
947.799	6467.57
948.105	6382.37
948.41	6383.5
948.716	6373.34
949.022	6329.04
949.327	6204.75
949.633	6197.52
949.938	6195.03
950.244	6221.25
950.549	6173.57
950.854	6170.4
951.16	6073.91
951.465	6066.68
951.77	6055.6
952.075	6021.93
952.38	6009.05
952.685	6039.56
952.99	5950.07
953.294	5943.74
953.599	5936.28
953.904	5866.23
954.209	5851.77
954.513	5843.86
954.818	5799.11
955.122	5831.65
955.426	5767.48
955.731	5781.71
956.035	5739.91
956.339	5658.33
956.643	5708.27
956.948	5690.19
957.252	5628.04
957.556	5595.73
957.86	5563.41
958.163	5508.95
958.467	5544.43
958.771	5531.78
959.075	5474.15
959.378	5442.51
959.682	5440.93
959.985	5428.05
960.289	5379.69
960.592	5306.02
960.896	5338.56
961.199	5287.04
961.502	5296.08
961.805	5283.42
962.108	5252.46
962.411	5238.68
962.714	5196.42
963.017	5151.9
963.32	5160.03
963.623	5111.9
963.926	5136.76
964.228	5059.92
964.531	5053.82
964.833	5049.75
965.136	4929.08
965.438	5002.07
965.741	4956.88
966.043	4912.36
966.345	4939.25
966.648	4882.75
966.95	4908.06
967.252	4852.25
967.554	4865.13
967.856	4794.17
968.158	4767.05
968.46	4809.08
968.761	4741.51
969.063	4781.51
969.365	4680.5
969.666	4665.13
969.968	4658.58
970.269	4638.24
970.571	4623.1
970.872	4604.12
971.174	4598.69
971.475	4579.26
971.776	4597.79
972.077	4546.26
972.378	4544
972.679	4509.88
972.98	4492.71
973.281	4479.6
973.582	4412.48
973.883	4398.02
974.183	4379.72
974.484	4394.18
974.785	4316.21
975.085	4371.13
975.386	4322.99
975.686	4323.22
975.986	4275.09
976.287	4263.56
976.587	4245.93
976.887	4251.13
977.187	4242.32
977.487	4176.1
977.787	4175.2
978.087	4180.4
978.387	4136.56
978.687	4139.27
978.987	4121.19
979.286	4076.67
979.586	4042.78
979.885	4019.27
980.185	4025.6
980.484	3992.15
980.784	3996.45
981.083	3950.12
981.382	3988.31
981.682	3922.78
981.981	3931.59
982.28	3937.47
982.579	3887.3
982.878	3867.41
983.177	3839.16
983.475	3870.35
983.774	3814.31
984.073	3801.88
984.372	3786.28
984.67	3758.71
984.969	3777.92
985.267	3739.05
985.566	3727.08
985.864	3699.73
986.162	3664.48
986.461	3650.47
986.759	3617.7
987.057	3616.35
987.355	3601.2
987.653	3593.3
987.951	3582.67
988.249	3563.01
988.547	3566.63
988.844	3550.58
989.142	3526.63
989.44	3453.19
989.737	3474.65
990.035	3496.8
990.332	3429.91
990.63	3424.49
990.927	3417.93
991.224	3375.9
991.521	3359.63
991.819	3392.85
992.116	3321.21
992.413	3325.28
992.71	3306.75
993.006	3305.62
993.303	3242.8
993.6	3227.43
993.897	3253.42
994.193	3234.43
994.49	3219.75
994.787	3211.61
995.083	3196.02
995.379	3167.09
995.676	3182.23
995.972	3112.4
996.268	3130.03
996.565	3095.68
996.861	3107.66
997.157	3075.79
997.453	3021.78
997.749	3030.82
998.044	3041.22
998.34	3006.87
998.636	3021.56
998.932	3002.58
999.227	2971.62
999.523	2936.36
999.818	2922.8
1000.114	2896.59
1000.409	2872.18
1000.704	2874.9
1001	2863.37
1001.295	2853.65
1001.59	2818.63
1001.885	2824.73
1002.18	2781.11
1002.475	2804.62
1002.77	2807.78
1003.065	2751.96
1003.359	2733.43
1003.654	2704.28
1003.949	2695.92
1004.243	2715.13
1004.538	2695.47
1004.832	2656.37
1005.127	2625.41
1005.421	2619.54
1005.715	2637.84
1006.009	2603.72
1006.304	2576.6
1006.598	2576.37
1006.892	2561.01
1007.186	2565.98
1007.48	2537.73
1007.773	2509.48
1008.067	2521.46
1008.361	2472.19
1008.655	2459.99
1008.948	2472.87
1009.242	2479.88
1009.535	2428.35
1009.829	2412.99
1010.122	2417.28
1010.415	2376.6
1010.708	2381.35
1011.001	2348.36
1011.295	2352.88
1011.588	2339.77
1011.881	2339.09
1012.173	2310.17
1012.466	2269.49
1012.759	2279.88
1013.052	2320.11
1013.344	2231.75
1013.637	2248.92
1013.93	2215.93
1014.222	2238.3
1014.514	2192.43
1014.807	2211.64
1015.099	2174.8
1015.391	2159.89
1015.683	2145.2
1015.976	2159.21
1016.268	2104.29
1016.56	2134.12
1016.851	2075.37
1017.143	2074.69
1017.435	2055.93
1017.727	2049.16
1018.018	2043.96
1018.31	2017.97
1018.602	2025.2
1018.893	2009.38
1019.185	1980.23
1019.476	1977.52
1019.767	1970.51
1020.058	1931.19
1020.35	1957.41
1020.641	1919.89
1020.932	1892.1
1021.223	1879.67
1021.514	1876.05
1021.804	1863.62
1022.095	1867.69
1022.386	1845.32
1022.677	1814.36
1022.967	1798.31
1023.258	1805.55
1023.548	1771.2
1023.839	1778.65
1024.129	1767.81
1024.419	1786.34
1024.709	1754.25
1025	1745.21
1025.29	1703.85
1025.58	1700.69
1025.87	1684.42
1026.16	1686.45
1026.449	1673.12
1026.739	1669.05
1027.029	1638.09
1027.319	1639.67
1027.608	1632.22
1027.898	1626.79
1028.187	1595.61
1028.477	1597.19
1028.766	1600.58
1029.055	1577.08
1029.344	1553.8
1029.634	1540.02
1029.923	1556.06
1030.212	1541.6
1030.501	1518.1
1030.79	1500.02
1031.078	1495.27
1031.367	1478.55
1031.656	1485.1
1031.945	1478.32
1032.233	1447.14
1032.522	1424.99
1032.81	1418.89
1033.099	1416.18
1033.387	1410.3
1033.675	1434.26
1033.963	1430.41
1034.251	1383.18
1034.54	1372.11
1034.828	1375.27
1035.116	1372.79
1035.403	1318.55
1035.691	1348.83
1035.979	1348.83
1036.267	1343.19
1036.554	1317.65
1036.842	1330.53
1037.129	1318.1
1037.417	1296.18
1037.704	1289.4
1037.992	1257.99
1038.279	1255.96
1038.566	1239.68
1038.853	1239.68
1039.14	1239.68
