Data from 7726_FLMS001491_008.txt Node
Date: Thu Apr 19 15:17:16 BST 2018
User: hsy
Spectrometer: FLMS00149
Trigger mode: 0
Integration Time (sec): 1.000000E-2
Scans to average: 10
Electric dark correction enabled: true
Nonlinearity correction enabled: false
Boxcar width: 0
XAxis mode: Wavelengths
Number of Pixels in Spectrum: 2048
>>>>>Begin Spectral Data<<<<<
341.393	-1.75
341.776	-1.75
342.16	-1.75
342.543	-47.63
342.927	-79.94
343.31	-47.4
343.693	-68.64
344.077	-68.87
344.46	-60.73
344.843	-67.06
345.226	-40.39
345.61	-28.19
345.993	-53.28
346.376	-1.75
346.759	9.32
347.142	11.81
347.525	42.54
347.908	78.7
348.291	86.38
348.674	108.75
349.057	98.81
349.44	112.82
349.823	151.92
350.206	174.52
350.588	229.2
350.971	254.06
351.354	257.22
351.737	257.45
352.119	263.55
352.502	287.51
352.884	292.93
353.267	306.49
353.65	328.86
354.032	322.08
354.414	349.43
354.797	349.88
355.179	356.88
355.562	350.1
355.944	348.75
356.326	362.53
356.709	356.43
357.091	364.34
357.473	371.12
357.855	374.28
358.238	380.16
358.62	375.19
359.002	367.05
359.384	388.97
359.766	367.73
360.148	382.42
360.53	379.03
360.912	372.25
361.294	376.09
361.676	382.19
362.057	388.29
362.439	370.67
362.821	387.62
363.203	381.52
363.584	369.09
363.966	377.45
364.348	392.36
364.729	361.63
365.111	352.82
365.493	388.29
365.874	368.63
366.256	336.77
366.637	356.88
367.019	357.79
367.4	361.4
367.781	348.97
368.163	364.34
368.544	382.19
368.925	372.7
369.306	359.6
369.688	373.61
370.069	366.37
370.45	379.71
370.831	394.85
371.212	364.11
371.593	373.61
371.974	381.06
372.355	382.87
372.736	392.59
373.117	379.71
373.498	382.42
373.879	384.91
374.26	372.02
374.641	388.75
375.021	377.45
375.402	387.62
375.783	405.02
376.163	397.33
376.544	414.06
376.925	394.85
377.305	399.14
377.686	395.98
378.066	401.63
378.447	389.88
378.827	390.55
379.208	407.5
379.588	400.27
379.968	418.58
380.349	439.37
380.729	411.35
381.109	403.44
381.489	405.24
381.87	419.25
382.25	437.33
382.63	433.27
383.01	441.4
383.39	425.81
383.77	433.04
384.15	434.62
384.53	434.62
384.91	434.85
385.29	450.67
385.67	454.96
386.049	460.84
386.429	456.32
386.809	442.08
387.189	453.6
387.568	470.78
387.948	478.01
388.328	472.13
388.707	481.85
389.087	481.4
389.466	485.47
389.846	482.3
390.225	474.17
390.605	496.99
390.984	491.57
391.363	484.79
391.743	503.09
392.122	500.38
392.501	514.62
392.881	508.52
393.26	511.91
393.639	506.26
394.018	534.96
394.397	525.24
394.776	524.34
395.155	530.66
395.534	523.66
395.913	541.74
396.292	538.8
396.671	540.83
397.05	528.4
397.429	547.39
397.808	543.77
398.186	559.82
398.565	547.16
398.944	575.41
399.323	555.07
399.701	547.84
400.08	569.08
400.458	567.73
400.837	597.33
401.215	600.49
401.594	596.2
401.972	607.95
402.351	605.24
402.729	600.27
403.107	631.68
403.486	627.38
403.864	597.55
404.242	591.23
404.62	644.79
404.999	647.95
405.377	640.04
405.755	645.69
406.133	663.54
406.511	647.72
406.889	680.72
407.267	687.72
407.645	685.24
408.023	671.68
408.401	707.61
408.779	680.94
409.156	712.81
409.534	721.85
409.912	727.49
410.29	709.19
410.667	711.45
411.045	736.53
411.422	754.84
411.8	748.29
412.178	755.97
412.555	798.23
412.933	738.57
413.31	782.86
413.687	816.53
414.065	788.51
414.442	819.92
414.819	812.46
415.197	820.83
415.574	826.25
415.951	834.61
416.328	823.76
416.705	834.61
417.082	830.32
417.46	858.11
417.837	865.12
418.214	876.64
418.591	883.88
418.967	896.53
419.344	899.69
419.721	883.88
420.098	899.47
420.475	892.46
420.852	936.3
421.228	902.63
421.605	922.52
421.982	936.98
422.358	956.87
422.735	962.07
423.111	968.39
423.488	972.23
423.864	997.77
424.241	974.72
424.617	984.44
424.994	1005.23
425.37	1006.13
425.746	1020.37
426.123	1007.94
426.499	1038.22
426.875	1038.9
427.251	1051.78
427.627	1086.36
428.003	1090.42
428.379	1076.64
428.756	1107.6
429.132	1101.72
429.507	1128.39
429.883	1140.37
430.259	1155.28
430.635	1175.84
431.011	1184.21
431.387	1205
431.763	1225.56
432.138	1217.43
432.514	1235.5
432.89	1251.77
433.265	1270.53
433.641	1301.72
434.016	1299.01
434.392	1328.16
434.767	1336.74
435.143	1361.6
435.518	1338.1
435.894	1361.38
436.269	1336.74
436.644	1401.83
437.02	1380.13
437.395	1400.02
437.77	1413.35
438.145	1443.18
438.52	1455.39
438.895	1479.57
439.271	1460.13
439.646	1489.96
440.021	1478.66
440.395	1504.65
440.77	1454.48
441.145	1507.59
441.52	1531.77
441.895	1520.47
442.27	1518.21
442.645	1538.1
443.019	1549.85
443.394	1566.57
443.769	1581.71
444.143	1579.68
444.518	1616.06
444.892	1580.35
445.267	1629.39
445.641	1605.21
446.016	1642.05
446.39	1624.87
446.764	1648.37
447.139	1663.29
447.513	1672.78
447.887	1669.17
448.262	1673.46
448.636	1674.14
449.01	1708.49
449.384	1729.05
449.758	1751.65
450.132	1767.02
450.506	1770.86
450.88	1784.19
451.254	1764.3
451.628	1844.3
452.002	1842.72
452.376	1828.03
452.75	1864.87
453.123	1870.52
453.497	1920.23
453.871	1904.87
454.244	1974.24
454.618	1972.66
454.992	1997.29
455.365	1980.34
455.739	2035.48
456.112	2070.74
456.486	2095.37
456.859	2082.04
457.232	2143.05
457.606	2160.23
457.979	2212.43
458.352	2200.68
458.725	2270.73
459.099	2269.6
459.472	2291.3
459.845	2345.76
460.218	2338.53
460.591	2362.71
460.964	2385.98
461.337	2430.73
461.71	2457.62
462.083	2488.58
462.456	2553.66
462.829	2549.37
463.201	2559.99
463.574	2563.15
463.947	2605.86
464.32	2637.73
464.692	2680.66
465.065	2698.52
465.438	2727.44
465.81	2748.46
466.183	2782.36
466.555	2831.62
466.928	2869.59
467.3	2864.61
467.672	2903.03
468.045	2971.96
468.417	2955.46
468.789	2987.32
469.161	3051.05
469.534	3110.71
469.906	3113.87
470.278	3173.08
470.65	3192.97
471.022	3264.83
471.394	3306.86
471.766	3348.44
472.138	3385.05
472.51	3455.11
472.882	3512.51
473.253	3525.61
473.625	3578.27
473.997	3651.71
474.369	3669.56
474.74	3679.96
475.112	3791.37
475.484	3837.02
475.855	3904.81
476.227	3955.66
476.598	4082.89
476.97	4108.88
477.341	4180.96
477.713	4209.66
478.084	4267.29
478.455	4386.61
478.827	4405.14
479.198	4570.56
479.569	4573.27
479.94	4733.72
480.311	4759.48
480.682	4846.71
481.053	4968.74
481.424	5090.77
481.795	5062.97
482.166	5206.02
482.537	5262.29
482.908	5375.06
483.279	5419.8
483.65	5517.2
484.021	5653.69
484.391	5765.33
484.762	5779.57
485.133	5891.88
485.503	5974.59
485.874	6171.65
486.244	6188.37
486.615	6348.14
486.985	6405.76
487.356	6556.95
487.726	6623.84
488.097	6820.44
488.467	6922.13
488.837	7093.88
489.207	7185.63
489.578	7286.87
489.948	7378.39
490.318	7528.67
490.688	7658.16
491.058	7824.94
491.428	7948.55
491.798	8017.7
492.168	8269.22
492.538	8319.39
492.908	8498.82
493.278	8579.49
493.648	8685.25
494.017	8811.58
494.387	9021.97
494.757	9083.21
495.126	9255.18
495.496	9400.94
495.866	9503.76
496.235	9653.14
496.605	9767.71
496.974	9910.98
497.344	10073.69
497.713	10266.23
498.082	10333.8
498.452	10544.64
498.821	10756.38
499.19	10798.64
499.559	11020.11
499.928	11110.72
500.298	11161.57
500.667	11424.39
501.036	11409.47
501.405	11652.63
501.774	11721.33
502.143	11916.35
502.512	12161.77
502.88	12303.91
503.249	12353.63
503.618	12584.13
503.987	12681.76
504.356	12880.17
504.724	13029.77
505.093	13185.47
505.462	13262.98
505.83	13464.79
506.199	13647.16
506.567	13924.44
506.936	13865
507.304	14128.5
507.672	14220.02
508.041	14421.6
508.409	14596.06
508.777	14712.44
509.145	14901.13
509.514	15046.44
509.882	15145.19
510.25	15279.2
510.618	15486.65
510.986	15525.3
511.354	15642.13
511.722	15952.63
512.09	16069.46
512.458	16098.39
512.826	16354.2
513.193	16503.58
513.561	16502.9
513.929	16711.03
514.297	16861.08
514.664	17017.46
515.032	17144.92
515.4	17352.14
515.767	17499.03
516.135	17571.12
516.502	17595.53
516.869	17957.1
517.237	17979.92
517.604	17947.16
517.972	18295.17
518.339	18463.75
518.706	18496.52
519.073	18592.79
519.44	18696.29
519.808	18903.74
520.175	18949.39
520.542	19148.93
520.909	19265.54
521.276	19302.15
521.643	19637.28
522.009	19621.69
522.376	19844.28
522.743	19972.86
523.11	20123.6
523.477	20205.17
523.843	20356.58
524.21	20578.72
524.577	20759.74
524.943	20840.19
525.31	20980.3
525.676	21132.83
526.043	21423
526.409	21337.8
526.776	21540.28
527.142	21593.16
527.508	21744.12
527.874	22007.39
528.241	21970.33
528.607	22145.46
528.973	22331.22
529.339	22295.52
529.705	22558.11
530.071	22556.53
530.437	22718.56
530.803	22818.89
531.169	22891.21
531.535	22849.17
531.901	23004.88
532.267	22963.29
532.632	23187.92
532.998	23215.94
533.364	23351.31
533.73	23353.11
534.095	23552.43
534.461	23548.14
534.826	23693.44
535.192	23569.61
535.557	23944.96
535.923	23708.81
536.288	23708.81
536.653	23918.3
537.019	23916.72
537.384	23955.13
537.749	23915.59
538.114	24050.95
538.479	23947.68
538.845	24038.97
539.21	23953.32
539.575	24098.63
539.94	24067.22
540.305	24200.1
540.67	24116.03
541.034	24256.82
541.399	24143.6
541.764	24348.79
542.129	24171.62
542.494	24331.17
542.858	24293.43
543.223	24290.72
543.587	24443.93
543.952	24382.47
544.316	24437.61
544.681	24363.94
545.045	24384.27
545.41	24511.28
545.774	24508.56
546.138	24386.99
546.503	24463.59
546.867	24601.67
547.231	24608.45
547.595	24605.74
547.959	24647.54
548.324	24551.95
548.688	24647.09
549.052	24669.24
549.416	24710.59
549.779	24749.46
550.143	24695.45
550.507	24749.91
550.871	24840.53
551.235	24758.28
551.599	24956.69
551.962	24934.77
552.326	24907.65
552.689	24948.78
553.053	24730.48
553.417	24820.87
553.78	25068.1
554.143	25096.57
554.507	25147.42
554.87	25177.02
555.234	25395.32
555.597	25171.82
555.96	25182.22
556.323	25280.97
556.686	25254.53
557.05	25418.37
557.413	25457.69
557.776	25474.64
558.139	25439.61
558.502	25569.33
558.865	25566.39
559.228	25816.55
559.59	25857.46
559.953	25909.43
560.316	26097.9
560.679	25908.98
561.041	26049.32
561.404	26118.01
561.767	26222.42
562.129	26240.04
562.492	26382.64
562.854	26495.41
563.217	26568.17
563.579	26516.2
563.941	26623.54
564.304	26715.96
564.666	26837.99
565.028	26860.82
565.39	26890.42
565.753	27141.26
566.115	27071.21
566.477	27127.25
566.839	27181.94
567.201	27637.97
567.563	27450.18
567.925	27649.27
568.287	27625.09
568.648	27736.95
569.01	27892.66
569.372	28050.84
569.734	27861.92
570.095	28118.41
570.457	28215.81
570.819	28190.28
571.18	28252.65
571.542	28404.28
571.903	28351.4
572.265	28523.83
572.626	28706.42
572.987	28682.47
573.349	28791.84
573.71	29024.15
574.071	29052.4
574.432	29039.07
574.794	29251.49
575.155	29182.79
575.516	29144.6
575.877	29207.2
576.238	29163.13
576.599	29244.49
576.96	29241.77
577.32	29194.54
577.681	29381.43
578.042	29530.13
578.403	29382.11
578.763	29421.2
579.124	29429.11
579.485	29555.21
579.845	29673.85
580.206	29564.25
580.566	29569.45
580.927	29412.62
581.287	29702.55
581.648	29631.59
582.008	29685.15
582.368	29582.78
582.728	29640.63
583.089	29548.21
583.449	29637.24
583.809	29734.64
584.169	29629.11
584.529	29472.95
584.889	29711.82
585.249	29514.76
585.609	29343.69
585.969	29532.61
586.329	29396.12
586.688	29472.95
587.048	29362.9
587.408	29398.38
587.768	29380.75
588.127	29329.23
588.487	29345.73
588.846	29595.89
589.206	29252.39
589.565	29265.28
589.925	29398.83
590.284	29201.77
590.643	29320.19
591.003	29329.23
591.362	29356.57
591.721	29189.12
592.08	29194.09
592.44	29269.8
592.799	29258.04
593.158	29209.91
593.517	29149.35
593.876	29155
594.235	29108.9
594.593	29016.92
594.952	29151.38
595.311	29114.55
595.67	29110.93
596.029	29371.04
596.387	29290.59
596.746	29473.86
597.104	29232.96
597.463	29120.42
597.822	29230.25
598.18	29097.37
598.538	29019.86
598.897	29206.29
599.255	29100.31
599.613	29436.8
599.972	29019.63
600.33	29251.94
600.688	29167.65
601.046	29241.55
601.404	29310.02
601.762	29322.45
602.12	29494.42
602.478	29260.08
602.836	29408.77
603.194	29203.81
603.552	29281.32
603.91	29193.19
604.268	29332.17
604.625	29318.83
604.983	29433.41
605.341	29313.64
605.698	29538.49
606.056	29620.75
606.413	29448.77
606.771	29597.24
607.128	29573.97
607.485	29450.58
607.843	29457.59
608.2	29494.42
608.557	29591.14
608.914	29477.02
609.272	29702.78
609.629	29940.96
609.986	29910.23
610.343	29845.15
610.7	30049.21
611.057	30028.42
611.414	29814.19
611.771	30193.84
612.127	30098.02
612.484	30077.23
612.841	30159.72
613.198	30085.82
613.554	30172.6
613.911	30203.56
614.267	30193.39
614.624	30352.93
614.98	30337.79
615.337	30421.63
615.693	30419.37
616.05	30513.83
616.406	30621.85
616.762	30442.42
617.118	30552.25
617.475	30496.66
617.831	30575.98
618.187	30733.49
618.543	30695.75
618.899	30909.53
619.255	30792.47
619.611	30841.05
619.967	30888.96
620.323	30939.13
620.678	30887.83
621.034	30782.3
621.39	30811.22
621.746	31054.83
622.101	31210.76
622.457	30923.31
622.812	31128.05
623.168	31100.93
623.523	31107.71
623.879	31157.2
624.234	30827.04
624.589	31084.66
624.945	31149.29
625.3	31104.55
625.655	31177.99
626.01	31161.5
626.365	31088.5
626.72	31108.62
627.075	31017.09
627.43	31082.18
627.785	31111.1
628.14	31114.72
628.495	31058.22
628.85	31022.29
629.205	31147.49
629.559	31049.18
629.914	30934.61
630.269	31060.26
630.623	30827.95
630.978	30776.42
631.332	30972.12
631.687	31065.45
632.041	30920.6
632.396	30892.58
632.75	30834.95
633.104	30957.66
633.459	30646.48
633.813	30741.62
634.167	30731.9
634.521	30721.06
634.875	30659.14
635.229	30552.25
635.583	30379.37
635.937	30426.6
636.291	30473.61
636.645	30491.01
636.999	30251.46
637.352	30438.35
637.706	30195.65
638.06	30309.99
638.413	30247.85
638.767	30089.89
639.121	30215.99
639.474	30074.29
639.828	30098.02
640.181	30075.42
640.534	29992.71
640.888	29980.06
641.241	29929.67
641.594	29858.25
641.947	29964.92
642.301	29888.76
642.654	29815.77
643.007	29755.66
643.36	29943.9
643.713	29873.17
644.066	29895.54
644.419	29717.47
644.771	29432.95
645.124	29056.24
645.477	29084.94
645.83	28966.07
646.182	29000.88
646.535	29000.2
646.888	28946.41
647.24	29028.67
647.593	29110.48
647.945	29075.22
648.298	28783.48
648.65	28721.79
649.002	28425.98
649.355	28324.74
649.707	28279.54
650.059	28124.51
650.411	28646.31
650.763	28922.01
651.115	29327.42
651.467	29176.01
651.819	29241.32
652.171	29227.54
652.523	29002.46
652.875	29077.94
653.227	29032.51
653.578	29146.63
653.93	29134.21
654.282	28978.28
654.633	29051.95
654.985	28996.81
655.337	29058.5
655.688	29029.58
656.039	29161.78
656.391	28752.97
656.742	28910.48
657.094	28967.66
657.445	28915.91
657.796	29004.27
658.147	28853.99
658.498	28785.29
658.849	29011.72
659.2	28798.62
659.551	28857.15
659.902	29141.21
660.253	28832.52
660.604	28963.81
660.955	28770.83
661.306	29080.2
661.656	28880.2
662.007	28934.21
662.358	28855.34
662.708	28936.02
663.059	28843.14
663.409	28789.81
663.76	29000.2
664.11	28869.58
664.461	29056.92
664.811	29001.33
665.161	28938.5
665.511	28871.16
665.862	29039.29
666.212	29028.22
666.562	29053.76
666.912	29004.49
667.262	28827.55
667.612	28919.52
667.962	28910.26
668.312	28839.75
668.662	29131.49
669.011	28909.35
669.361	28993.42
669.711	28990.48
670.06	28866.19
670.41	28898.28
670.76	28831.39
671.109	28996.58
671.459	28964.04
671.808	28959.75
672.157	28930.6
672.507	28811.95
672.856	28785.29
673.205	28774.67
673.554	28840.65
673.904	28646.08
674.253	28923.82
674.602	28615.12
674.951	28433.89
675.3	28331.74
675.649	28758.62
675.998	28721.79
676.346	28615.12
676.695	28613.32
677.044	28566.31
677.393	28514.79
677.741	28602.69
678.09	28461.68
678.438	28506.2
678.787	28587.33
679.135	28529.93
679.484	28265.75
679.832	28428.46
680.181	28327.45
680.529	28354.79
680.877	28207.9
681.225	28174.23
681.573	28334.9
681.922	28120.67
682.27	28106.66
682.618	28148.47
682.966	28009.49
683.314	28052.65
683.661	28125.19
684.009	27892.88
684.357	27846.1
684.705	27802.94
685.053	27902.37
685.4	27675.26
685.748	27668.48
686.095	27597.3
686.443	27436.4
686.79	27338.77
687.138	27504.19
687.485	27437.53
687.832	27298.1
688.18	27215.84
688.527	27096.52
688.874	27165.67
689.221	27155.27
689.568	26975.39
689.915	26880.25
690.262	26887.03
690.609	26850.2
690.956	26706.7
691.303	26728.85
691.65	26492.69
691.997	26464.22
692.344	26353.04
692.69	26260.38
693.037	26200.27
693.383	26091.57
693.73	26079.6
694.077	25952.37
694.423	25968.64
694.769	25835.99
695.116	25786.5
695.462	25683.22
695.808	25480.29
696.155	25672.6
696.501	25407.98
696.847	25413.4
697.193	25289.11
697.539	25103.58
697.885	24995.11
698.231	25028.78
698.577	24950.59
698.923	24983.13
699.269	24796.92
699.614	24624.04
699.96	24543.59
700.306	24545.17
700.651	24471.5
700.997	24251.17
701.342	24157.39
701.688	24173.88
702.033	24054.34
702.379	24133.89
702.724	23944.06
703.069	24006.2
703.415	23632.66
703.76	23661.58
704.105	23803.5
704.45	23593.33
704.795	23458.42
705.14	23375.71
705.485	23508.14
705.83	23367.8
706.175	23422.27
706.52	23146.11
706.865	23189.28
707.209	23110.41
707.554	23037.64
707.899	22956.52
708.243	22893.92
708.588	22848.04
708.932	22783.86
709.277	22770.98
709.621	22560.37
709.966	22505.91
710.31	22585.68
710.654	22339.36
710.998	22429.98
711.342	22467.04
711.687	22257.1
712.031	22348.62
712.375	22173.94
712.719	22139.14
713.063	22098.01
713.407	22217.33
713.75	22013.71
714.094	22020.95
714.438	21958.58
714.782	21920.61
715.125	21912.47
715.469	21949.54
715.812	21815.3
716.156	21728.75
716.499	21826.6
716.843	21693.72
717.186	21590
717.53	21709.99
717.873	21730.78
718.216	21650.33
718.559	21509.77
718.902	21439.04
719.246	21508.87
719.589	21495.31
719.932	21318.82
720.275	21322.21
720.617	21436.33
720.96	21333.05
721.303	21327.41
721.646	21332.38
721.989	21232.94
722.331	21392.26
722.674	21177.13
723.016	21230.46
723.359	21147.75
723.701	21194.08
724.044	21141.87
724.386	21088.99
724.729	21084.02
725.071	21098.48
725.413	21083.12
725.755	21006.06
726.097	20967.87
726.439	20887.64
726.782	20863.01
727.124	21090.8
727.465	20933.97
727.807	20890.13
728.149	20997.02
728.491	20989.79
728.833	21059.39
729.175	20830.47
729.516	20961.31
729.858	20928.77
730.199	20937.36
730.541	20914.31
730.882	20805.61
731.224	20986.62
731.565	20852.62
731.906	20961.09
732.248	20942.78
732.589	20775.33
732.93	20779.85
733.271	20785.05
733.612	20798.38
733.953	20898.49
734.294	20820.3
734.635	20714.77
734.976	21019.62
735.317	20862.11
735.658	20846.06
735.999	20848.32
736.339	20851.49
736.68	20884.48
737.021	20840.41
737.361	20905.95
737.702	21128.54
738.042	20857.14
738.383	20961.77
738.723	21031.59
739.063	20898.04
739.404	21056.45
739.744	21149.56
740.084	21027.53
740.424	21112.95
740.764	21078.6
741.104	21236.33
741.444	21069.33
741.784	21127.41
742.124	21271.59
742.464	21317.24
742.804	21416.44
743.143	21329.67
743.483	21511.13
743.823	21386.16
744.162	21543.67
744.502	21596.78
744.841	21554.29
745.181	21661.18
745.52	21727.17
745.86	21817.79
746.199	21857.56
746.538	21815.98
746.877	22077.22
747.216	22036.77
747.556	22046.48
747.895	22275.4
748.234	22243.77
748.573	22255.52
748.911	22426.13
749.25	22570.99
749.589	22657.31
749.928	22650.76
750.267	22844.65
750.605	22926.46
750.944	23139.56
751.283	23113.35
751.621	23223.4
751.96	23295.26
752.298	23406.22
752.636	23653.9
752.975	23546.56
753.313	23745.65
753.651	24051.85
753.989	24038.29
754.327	24100.89
754.666	24127.78
755.004	24381.11
755.342	24552.63
755.679	24610.26
756.017	24530.48
756.355	24814.77
756.693	24849.35
757.031	25073.52
757.368	24986.74
757.706	25116.68
758.044	25180.41
758.381	25508.54
758.719	25544.24
759.056	25611.81
759.394	25634.18
759.731	25754.63
760.068	25833.95
760.405	25980.62
760.743	26085.02
761.08	26162.98
761.417	26142.87
761.754	26233.27
762.091	26284.79
762.428	26201.85
762.765	26220.38
763.102	26374.5
763.438	26391.68
763.775	26408.63
764.112	26585.35
764.449	26637.1
764.785	26639.36
765.122	26577.44
765.458	26601.39
765.795	26679.13
766.131	26873.7
766.467	26844.1
766.804	26731.33
767.14	26835.06
767.476	26766.36
767.812	26722.97
768.148	26871.44
768.485	26961.83
768.821	26786.47
769.157	26811.78
769.492	26823.76
769.828	26897.43
770.164	26715.74
770.5	26649.75
770.836	26778.79
771.171	26779.01
771.507	26717.09
771.842	26591.67
772.178	26657.89
772.513	26666.93
772.849	26569.08
773.184	26715.51
773.519	26582.41
773.855	26432.58
774.19	26456.31
774.525	26541.28
774.86	26509.42
775.195	26407.05
775.53	26295.41
775.865	26247.05
776.2	26111.91
776.535	25998.24
776.87	26038.69
777.205	25999.37
777.539	25873.27
777.874	26013.61
778.209	25659.95
778.543	25770.45
778.878	25726.16
779.212	25663.34
779.547	25487.52
779.881	25485.71
780.215	25317.58
780.55	25416.34
780.884	25192.39
781.218	25200.98
781.552	25281.65
781.886	25202.78
782.22	24970.02
782.554	24914.43
782.888	24701.55
783.222	24752.4
783.556	24661.78
783.889	24633.53
784.223	24428.57
784.557	24453.88
784.89	24623.14
785.224	24265.18
785.557	24186.77
785.891	24290.49
786.224	24154.22
786.558	24102.47
786.891	23978.86
787.224	23908.81
787.557	23800.79
787.891	23745.87
788.224	23575.26
788.557	23613.22
788.89	23562.15
789.223	23531.87
789.556	23460.46
789.888	23357.63
790.221	23346.56
790.554	23172.78
790.887	23141.82
791.219	23025.89
791.552	23053.46
791.884	22983.63
792.217	22977.31
792.549	22785.45
792.882	22702.06
793.214	22606.69
793.546	22670.65
793.879	22560.37
794.211	22432.46
794.543	22563.31
794.875	22418
795.207	22393.59
795.539	22277.21
795.871	22325.12
796.203	22105.24
796.535	21990.21
796.867	21944.11
797.198	21929.42
797.53	21861.85
797.862	21810.56
798.193	21783.89
798.525	21711.12
798.856	21822.99
799.188	21388.65
799.519	21332.83
799.85	21329.44
800.182	21279.72
800.513	21365.14
800.844	21122.44
801.175	21176.45
801.506	21214.41
801.837	21018.26
802.168	21007.64
802.499	21038.37
802.83	20884.71
803.161	20816.68
803.491	20813.75
803.822	20918.15
804.153	20726.07
804.483	20547.99
804.814	20513.19
805.145	20467.31
805.475	20461.67
805.805	20393.19
806.136	20354.78
806.466	20237.26
806.796	20223.48
807.126	20158.85
807.457	20118.17
807.787	20235.91
808.117	20125.85
808.447	19868.46
808.777	20052.41
809.107	19859.42
809.436	19836.82
809.766	19886.54
810.096	19905.07
810.426	19773.55
810.755	19749.37
811.085	19655.36
811.414	19667.79
811.744	19550.95
812.073	19514.35
812.403	19373.11
812.732	19357.97
813.061	19528.13
813.39	19275.71
813.719	19301.24
814.049	19375.82
814.378	19415.59
814.707	19134.47
815.036	19181.93
815.365	19096.28
815.693	18975.38
816.022	18915.94
816.351	18945.55
816.68	18840.01
817.008	18954.81
817.337	18710.3
817.665	18717.53
817.994	18810.41
818.322	18798.66
818.651	18711.65
818.979	18718.89
819.307	18632.11
819.636	18670.07
819.964	18559.79
820.292	18618.32
820.62	18590.3
820.948	18601.15
821.276	18675.05
821.604	18709.17
821.932	18724.76
822.259	18638.44
822.587	18618.78
822.915	18453.13
823.243	18607.48
823.57	18517.08
823.898	18548.27
824.225	18536.29
824.553	18506.24
824.88	18552.11
825.207	18635.5
825.535	18474.15
825.862	18555.27
826.189	18536.97
826.516	18707.81
826.843	18726.12
827.17	18566.12
827.497	18536.52
827.824	18649.51
828.151	18616.97
828.478	18575.39
828.805	18677.76
829.131	18652.22
829.458	18628.95
829.785	18490.64
830.111	18675.5
830.438	18677.98
830.764	18560.7
831.09	18644.09
831.417	18494.03
831.743	18638.89
832.069	18672.11
832.395	18444.77
832.722	18546.24
833.048	18538.55
833.374	18585.1
833.7	18496.97
834.026	18569.29
834.351	18476.86
834.677	18525.45
835.003	18511.21
835.329	18532.45
835.654	18501.94
835.98	18463.75
836.306	18389.4
836.631	18330.87
836.956	18555.27
837.282	18487.71
837.607	18358.9
837.932	18412.91
838.258	18362.06
838.583	18435.05
838.908	18149.41
839.233	18334.26
839.558	18269.18
839.883	18138.56
840.208	18093.14
840.533	18064.67
840.858	18013.82
841.182	18167.94
841.507	18093.59
841.832	18014.27
842.156	18052.01
842.481	18011.56
842.805	18012.92
843.13	17870.1
843.454	17933.6
843.778	17726.14
844.103	17832.81
844.427	17801.17
844.751	17805.46
845.075	17655.41
845.399	17698.35
845.723	17581.06
846.047	17520.27
846.371	17448.19
846.695	17397.79
847.019	17312.37
847.343	17246.61
847.666	17153.96
847.99	17093.62
848.313	17063.11
848.637	17067.4
848.96	16968.88
849.284	17017.46
849.607	16840.74
849.931	16713.06
850.254	16673.06
850.577	16539.28
850.9	16509.45
851.223	16381.55
851.546	16402.56
851.869	16315.11
852.192	16426.29
852.515	16177.71
852.838	16184.49
853.161	16134.1
853.483	16040.31
853.806	15953.54
854.129	15943.37
854.451	15903.14
854.774	15771.85
855.096	15748.57
855.419	15749.92
855.741	15690.04
856.063	15669.47
856.385	15600.32
856.708	15560.78
857.03	15574.11
857.352	15502.25
857.674	15419.54
857.996	15372.76
858.318	15335.47
858.64	15351.07
858.961	15220.67
859.283	15210.28
859.605	15172.99
859.926	15106.78
860.248	15100.22
860.57	14998.31
860.891	15079.66
861.212	14945.88
861.534	14970.06
861.855	14888.93
862.176	14905.65
862.498	14931.42
862.819	14949.49
863.14	14772.78
863.461	14766.45
863.782	14755.6
864.103	14700.91
864.424	14587.47
864.745	14632.44
865.065	14585.89
865.386	14588.37
865.707	14696.17
866.027	14562.39
866.348	14520.13
866.668	14496.62
866.989	14479
867.309	14383.41
867.63	14408.72
867.95	14445.1
868.27	14336.85
868.59	14391.09
868.91	14375.05
869.23	14294.6
869.55	14157.42
869.87	14304.09
870.19	14186.58
870.51	14176.18
870.83	14173.02
871.15	14110.65
871.469	14115.17
871.789	14201.27
872.109	14120.36
872.428	14101.15
872.748	14116.07
873.067	14027.48
873.386	14053.25
873.706	13998.78
874.025	13904.32
874.344	13913.81
874.663	13900.71
874.982	13937.09
875.301	13906.81
875.62	13888.28
875.939	13810.99
876.258	13904.78
876.577	13768.96
876.896	13806.47
877.214	13712.92
877.533	13729.86
877.852	13697.1
878.17	13671.79
878.489	13702.52
878.807	13715.85
879.125	13648.06
879.444	13538.01
879.762	13627.27
880.08	13634.5
880.398	13512.24
880.716	13545.01
881.034	13444.22
881.352	13436.09
881.67	13382.53
881.988	13400.38
882.306	13308.63
882.624	13333.49
882.941	13318.35
883.259	13255.3
883.577	13194.51
883.894	13326.94
884.212	13154.96
884.529	13220.95
884.846	13162.42
885.164	13023.67
885.481	13076.32
885.798	13121.07
886.115	12954.29
886.432	12964.01
886.75	12979.83
887.067	13006.95
887.383	12945.03
887.7	12941.41
888.017	12759.72
888.334	12779.38
888.651	12763.11
888.967	12663
889.284	12629.55
889.6	12584.58
889.917	12613.96
890.233	12567.64
890.55	12548.88
890.866	12552.72
891.182	12468.2
891.498	12437.7
891.815	12404.02
892.131	12416
892.447	12334.42
892.763	12282.67
893.079	12297.59
893.395	12209
893.71	12159.74
894.026	12049.01
894.342	12130.13
894.657	11990.02
894.973	12077.71
895.289	12049.91
895.604	11949.12
895.92	11881.1
896.235	11832.51
896.55	11862.12
896.865	11837.94
897.181	11795.68
897.496	11799.29
897.811	11652.18
898.126	11649.24
898.441	11616.7
898.756	11545.29
899.071	11508
899.386	11525.63
899.7	11413.54
900.015	11380.77
900.33	11318.18
900.644	11284.96
900.959	11343.26
901.273	11249.48
901.588	11255.35
901.902	11188.91
902.216	11159.54
902.531	11121.12
902.845	11058.07
903.159	11000.67
903.473	10995.47
903.787	10883.39
904.101	10819.66
904.415	10861.92
904.729	10823.5
905.042	10755.25
905.356	10792.32
905.67	10701.7
905.984	10715.25
906.297	10671.87
906.611	10610.85
906.924	10593.68
907.237	10562.72
907.551	10506.9
907.864	10416.73
908.177	10447.47
908.491	10319.33
908.804	10290.86
909.117	10229.62
909.43	10214.7
909.743	10200.01
910.056	10195.95
910.368	10115.72
910.681	10101.03
910.994	10068.04
911.307	10024.2
911.619	9918.89
911.932	9964.09
912.244	9816.07
912.557	9822.62
912.869	9760.7
913.181	9811.32
913.494	9681.38
913.806	9605.91
914.118	9607.94
914.43	9635.74
914.742	9563.65
915.054	9497.43
915.366	9450.43
915.678	9456.98
915.99	9412.46
916.302	9395.52
916.613	9305.35
916.925	9275.74
917.236	9271.9
917.548	9209.08
917.859	9222.19
918.171	9182.64
918.482	9015.64
918.794	9071.68
919.105	8964.79
919.416	9012.47
919.727	8989.88
920.038	8918.24
920.349	8893.38
920.66	8832.37
920.971	8781.97
921.282	8762.54
921.593	8718.02
921.903	8645.7
922.214	8654.97
922.525	8596.21
922.835	8587.18
923.146	8563
923.456	8500.17
923.767	8497.01
924.077	8479.38
924.387	8437.12
924.697	8366.84
925.008	8370.91
925.318	8284.81
925.628	8310.57
925.938	8205.72
926.248	8117.58
926.558	8152.38
926.867	8147.41
927.177	8075.78
927.487	8036
927.796	8045.04
928.106	8006.17
928.416	7939.51
928.725	7960.53
929.034	7899.28
929.344	7894.09
929.653	7946.97
929.962	7831.71
930.271	7764.82
930.581	7735.9
930.89	7722.57
931.199	7635.56
931.508	7559.86
931.817	7574.32
932.125	7544.04
932.434	7527.54
932.743	7438.96
933.051	7444.15
933.36	7402.57
933.669	7353.76
933.977	7329.13
934.286	7318.73
934.594	7282.58
934.902	7280.99
935.21	7263.59
935.519	7253.43
935.827	7208.91
936.135	7165.07
936.443	7109.7
936.751	7052.07
937.059	7084.84
937.367	7036.03
937.674	7011.85
937.982	6991.74
938.29	6953.55
938.597	6920.78
938.905	6862.25
939.213	6897.05
939.52	6817.05
939.827	6796.49
940.135	6767.34
940.442	6723.04
940.749	6665.19
941.056	6724.4
941.363	6686.89
941.67	6651.18
941.977	6596.27
942.284	6507.46
942.591	6548.58
942.898	6485.54
943.205	6438.98
943.511	6443.95
943.818	6423.84
944.125	6369.83
944.431	6347.23
944.738	6384.3
945.044	6343.39
945.35	6296.39
945.657	6252.55
945.963	6277.18
946.269	6195.15
946.575	6207.35
946.881	6231.08
947.187	6107.69
947.493	6113.79
947.799	6049.84
948.105	6040.35
948.41	5962.16
948.716	5994.48
949.022	5947.24
949.327	5998.77
949.633	5883.07
949.938	5927.13
950.244	5886
950.549	5823.63
950.854	5803.97
951.16	5814.37
951.465	5758.1
951.77	5735.05
952.075	5718.32
952.38	5698.89
952.685	5677.2
952.99	5652.11
953.294	5616.41
953.599	5601.04
953.904	5606.24
954.209	5497.99
954.513	5492.57
954.818	5514.71
955.122	5495.05
955.426	5475.17
955.731	5426.13
956.035	5349.75
956.339	5400.59
956.643	5381.16
956.948	5281.27
957.252	5313.82
957.556	5292.57
957.86	5260.48
958.163	5193.37
958.467	5217.55
958.771	5227.94
959.075	5225.91
959.378	5169.86
959.682	5128.51
959.985	5100.94
960.289	5048.96
960.592	5030.43
960.896	5038.79
961.199	5028.4
961.502	5012.81
961.805	4956.31
962.108	4938.23
962.411	4937.1
962.714	4908.85
963.017	4827.27
963.32	4893.49
963.623	4859.14
963.926	4861.62
964.228	4767.61
964.531	4825.01
964.833	4787.73
965.136	4740.04
965.438	4741.85
965.741	4660.95
966.043	4670.22
966.345	4621.18
966.648	4608.75
966.95	4642.65
967.252	4572.37
967.554	4575.3
967.856	4588.41
968.158	4522.65
968.46	4517
968.761	4545.93
969.063	4453.27
969.365	4429.09
969.666	4421.18
969.968	4385.03
970.269	4338.7
970.571	4423.22
970.872	4326.27
971.174	4368.3
971.475	4285.59
971.776	4304.35
972.077	4249.66
972.378	4271.58
972.679	4253.96
972.98	4202.21
973.281	4214.18
973.582	4237.91
973.883	4215.31
974.183	4175.54
974.484	4087.86
974.785	4124.92
975.085	4099.61
975.386	4049.89
975.686	4037.01
975.986	4056.45
976.287	4030.01
976.587	3996.11
976.887	3959.05
977.187	4002.21
977.487	3982.1
977.787	3919.05
978.087	3928.54
978.387	3860.75
978.687	3899.61
978.987	3843.8
979.286	3882.89
979.586	3847.41
979.885	3783.69
980.185	3831.82
980.484	3801.31
980.784	3789.34
981.083	3756.57
981.382	3739.39
981.682	3767.87
981.981	3689.68
982.28	3647.42
982.579	3656.91
982.878	3674.76
983.177	3618.04
983.475	3579.62
983.774	3611.26
984.073	3606.97
984.372	3561.09
984.67	3557.7
984.969	3557.93
985.267	3519.29
985.566	3522.22
985.864	3520.19
986.162	3486.97
986.461	3458.27
986.759	3459.17
987.057	3399.52
987.355	3384.37
987.653	3397.93
987.951	3358.84
988.249	3404.26
988.547	3390.48
988.844	3348.22
989.142	3369.46
989.44	3311.38
989.737	3303.7
990.035	3259.41
990.332	3243.81
990.63	3211.72
990.927	3204.27
991.224	3225.28
991.521	3217.6
991.819	3159.3
992.116	3127.66
992.413	3171.95
992.71	3131.73
993.006	3136.7
993.303	3148.22
993.6	3077.04
993.897	3084.72
994.193	3069.81
994.49	3061.9
994.787	3032.97
995.083	3018.28
995.379	3024.61
995.676	3001.33
995.972	3025.29
996.268	2964.05
996.565	2963.59
996.861	2943.71
997.157	2919.3
997.453	2907.78
997.749	2884.27
998.044	2827.78
998.34	2844.73
998.636	2867.55
998.932	2814.67
999.227	2838.17
999.523	2814.67
999.818	2761.57
1000.114	2781.68
1000.409	2773.54
1000.704	2704.62
1001	2739.87
1001.295	2700.55
1001.59	2688.12
1001.885	2690.16
1002.18	2649.7
1002.475	2644.96
1002.77	2635.24
1003.065	2590.72
1003.359	2615.13
1003.654	2601.34
1003.949	2590.72
1004.243	2553.66
1004.538	2552.31
1004.832	2570.84
1005.127	2512.76
1005.421	2489.71
1005.715	2524.74
1006.009	2490.61
1006.304	2490.39
1006.598	2476.15
1006.892	2447.68
1007.186	2399.77
1007.48	2396.38
1007.773	2392.31
1008.067	2381.46
1008.361	2343.27
1008.655	2329.49
1008.948	2323.61
1009.242	2329.49
1009.535	2288.36
1009.829	2290.39
1010.122	2275.93
1010.415	2302.14
1010.708	2293.1
1011.001	2215.59
1011.295	2238.42
1011.588	2228.25
1011.881	2199.77
1012.173	2200.9
1012.466	2175.59
1012.759	2155.03
1013.052	2131.07
1013.344	2143.05
1013.637	2101.7
1013.93	2099.89
1014.222	2092.2
1014.514	2096.27
1014.807	2068.7
1015.099	2070.28
1015.391	2038.19
1015.683	2039.78
1015.976	2018.31
1016.268	1992.77
1016.56	1958.42
1016.851	1978.76
1017.143	1924.3
1017.435	1938.54
1017.727	1916.16
1018.018	1948.93
1018.31	1905.77
1018.602	1933.79
1018.893	1893.79
1019.185	1919.33
1019.476	1912.77
1019.767	1870.52
1020.058	1870.06
1020.35	1838.43
1020.641	1844.08
1020.932	1814.92
1021.223	1790.52
1021.514	1788.94
1021.804	1779.44
1022.095	1764.3
1022.386	1760.24
1022.677	1732.44
1022.967	1743.51
1023.258	1700.35
1023.548	1719.79
1023.839	1695.15
1024.129	1705.77
1024.419	1669.62
1024.709	1632.1
1025	1645.44
1025.29	1664.87
1025.58	1609.73
1025.87	1617.64
1026.16	1602.27
1026.449	1602.95
1026.739	1611.77
1027.029	1615.83
1027.319	1580.81
1027.608	1573.12
1027.898	1558.66
1028.187	1554.82
1028.477	1513.46
1028.766	1522.28
1029.055	1479.57
1029.344	1495.84
1029.634	1455.84
1029.923	1497.64
1030.212	1450.64
1030.501	1458.32
1030.79	1436.63
1031.078	1439.57
1031.367	1427.82
1031.656	1417.42
1031.945	1395.27
1032.233	1408.38
1032.522	1393.01
1032.81	1410.41
1033.099	1327.25
1033.387	1385.56
1033.675	1348.5
1033.963	1326.58
1034.251	1305.33
1034.54	1345.11
1034.828	1314.6
1035.116	1296.75
1035.403	1294.94
1035.691	1272.11
1035.979	1288.38
1036.267	1273.92
1036.554	1254.03
1036.842	1226.69
1037.129	1232.34
1037.417	1242.51
1037.704	1236.18
1037.992	1209.52
1038.279	1222.85
1038.566	1193.02
1038.853	1193.02
1039.14	1193.02
