Data from 7726_FLMS001491_009.txt Node
Date: Thu Apr 19 15:17:20 BST 2018
User: hsy
Spectrometer: FLMS00149
Trigger mode: 0
Integration Time (sec): 1.000000E-2
Scans to average: 10
Electric dark correction enabled: true
Nonlinearity correction enabled: false
Boxcar width: 0
XAxis mode: Wavelengths
Number of Pixels in Spectrum: 2048
>>>>>Begin Spectral Data<<<<<
341.393	2.47
341.776	2.47
342.16	2.47
342.543	-54.02
342.927	-82.27
343.31	-83.18
343.693	-75.27
344.077	-60.13
344.46	-65.1
344.843	-62.84
345.226	-32.33
345.61	-43.63
345.993	-7.25
346.376	7.22
346.759	-2.5
347.142	35.01
347.525	41.34
347.908	53.09
348.291	68.68
348.674	104.16
349.057	122.69
349.44	130.83
349.823	150.04
350.206	176.7
350.588	204.73
350.971	254.44
351.354	260.54
351.737	268.68
352.119	282.92
352.502	297.83
352.884	296.93
353.267	305.29
353.65	331.95
354.032	317.94
354.414	363.37
354.797	359.07
355.179	334.89
355.562	342.35
355.944	375.8
356.326	356.59
356.709	373.54
357.091	377.38
357.473	381.9
357.855	378.51
358.238	371.73
358.62	383.48
359.002	382.12
359.384	369.24
359.766	388
360.148	368.56
360.53	377.83
360.912	377.15
361.294	394.33
361.676	377.15
362.057	376.7
362.439	374.44
362.821	393.87
363.203	381.9
363.584	366.76
363.966	370.37
364.348	352.07
364.729	367.43
365.111	374.21
365.493	378.06
365.874	367.43
366.256	344.84
366.637	369.92
367.019	364.04
367.4	359.3
367.781	363.59
368.163	375.12
368.544	384.61
368.925	377.83
369.306	366.98
369.688	370.15
370.069	384.38
370.45	361.11
370.831	358.85
371.212	362.01
371.593	371.73
371.974	362.91
372.355	368.34
372.736	370.6
373.117	371.28
373.498	364.04
373.879	368.11
374.26	386.42
374.641	381.9
375.021	377.38
375.402	405.62
375.783	396.36
376.163	383.25
376.544	390.26
376.925	398.17
377.305	402.46
377.686	416.25
378.066	397.72
378.447	405.17
378.827	412.63
379.208	395
379.588	382.57
379.968	425.96
380.349	405.85
380.729	411.73
381.109	435
381.489	431.84
381.87	408.79
382.25	409.24
382.63	425.96
383.01	426.42
383.39	437.71
383.77	439.52
384.15	474.55
384.53	428.9
384.91	448.34
385.29	435.23
385.67	454.89
386.049	458.96
386.429	486.3
386.809	452.4
387.189	447.88
387.568	449.69
387.948	455.12
388.328	482.46
388.707	472.74
389.087	471.16
389.466	460.99
389.846	460.31
390.225	482.46
390.605	493.98
390.984	500.31
391.363	499.86
391.743	481.33
392.122	509.8
392.501	506.41
392.881	512.29
393.26	525.4
393.639	515.68
394.018	528.11
394.397	515.45
394.776	540.99
395.155	561.1
395.534	522.68
395.913	540.99
396.292	550.48
396.671	557.94
397.05	546.86
397.429	553.42
397.808	564.72
398.186	574.66
398.565	562.23
398.944	563.59
399.323	573.76
399.701	560.65
400.08	574.89
400.458	572.17
400.837	585.51
401.215	593.64
401.594	607.2
401.972	603.13
402.351	594.32
402.729	608.78
403.107	597.03
403.486	621.44
403.864	628.22
404.242	637.26
404.62	629.35
404.999	643.13
405.377	664.38
405.755	655.11
406.133	644.49
406.511	669.12
406.889	670.02
407.267	679.06
407.645	658.95
408.023	677.71
408.401	677.93
408.779	707.54
409.156	711.83
409.534	695.33
409.912	704.37
410.29	732.62
410.667	732.4
411.045	753.64
411.422	738.27
411.8	760.19
412.178	776.46
412.555	781.43
412.933	779.85
413.31	803.58
413.687	804.03
414.065	834.77
414.442	815.78
414.819	810.13
415.197	836.57
415.574	816.91
415.951	824.14
416.328	874.54
416.705	837.7
417.082	853.97
417.46	860.3
417.837	862.56
418.214	865.05
418.591	878.15
418.967	893.07
419.344	904.82
419.721	890.13
420.098	898.72
420.475	926.29
420.852	913.18
421.228	910.47
421.605	930.13
421.982	939.17
422.358	961.99
422.735	969.45
423.111	950.24
423.488	982.11
423.864	984.14
424.241	1007.42
424.617	983.01
424.994	992.05
425.37	1016
425.746	1004.93
426.123	1028.21
426.499	1053.29
426.875	1053.29
427.251	1046.51
427.627	1091.93
428.003	1092.61
428.379	1096.23
428.756	1101.65
429.132	1134.87
429.507	1148.43
429.883	1132.39
430.259	1159.96
430.635	1168.32
431.011	1173.29
431.387	1192.04
431.763	1210.12
432.138	1200.63
432.514	1228.2
432.89	1235.21
433.265	1278.37
433.641	1279.5
434.016	1273.4
434.392	1323.79
434.767	1351.59
435.143	1336
435.518	1341.19
435.894	1385.03
436.269	1368.99
436.644	1413.73
437.02	1387.75
437.395	1403.11
437.77	1441.53
438.145	1451.25
438.52	1432.94
438.895	1474.75
439.271	1479.49
439.646	1495.99
440.021	1493.96
440.395	1509.78
440.77	1491.47
441.145	1535.09
441.52	1552.04
441.895	1537.35
442.27	1570.79
442.645	1551.81
443.019	1560.4
443.394	1594.29
443.769	1597.46
444.143	1610.34
444.518	1623.45
444.892	1653.5
445.267	1646.95
445.641	1619.6
446.016	1636.78
446.39	1642.65
446.764	1683.56
447.139	1679.26
447.513	1702.31
447.887	1688.3
448.262	1700.51
448.636	1722.88
449.01	1696.21
449.384	1739.6
449.758	1761.97
450.132	1754.29
450.506	1790.22
450.88	1801.75
451.254	1810.11
451.628	1810.11
452.002	1851.69
452.376	1880.39
452.75	1857.34
453.123	1914.06
453.497	1914.06
453.871	1947.73
454.244	1998.58
454.618	1998.35
454.992	2021.85
455.365	1997.67
455.739	2055.98
456.112	2085.58
456.486	2107.5
456.859	2141.62
457.232	2197.67
457.606	2165.58
457.979	2208.97
458.352	2249.19
458.725	2293.71
459.099	2314.05
459.472	2316.08
459.845	2388.17
460.218	2380.71
460.591	2388.4
460.964	2435.4
461.337	2458.23
461.71	2494.16
462.083	2556.75
462.456	2512.01
462.829	2553.37
463.201	2585.23
463.574	2581.16
463.947	2601.73
464.32	2662.97
464.692	2689.63
465.065	2733.7
465.438	2761.95
465.81	2785.22
466.183	2820.25
466.555	2883.07
466.928	2933.02
467.3	2900.93
467.672	2931.89
468.045	2993.35
468.417	3036.06
468.789	3022.73
469.161	3045.56
469.534	3126.46
469.906	3171.88
470.278	3184.76
470.65	3261.82
471.022	3320.58
471.394	3326.45
471.766	3371.2
472.138	3424.53
472.51	3476.05
472.882	3540.23
473.253	3543.85
473.625	3620.23
473.997	3661.13
474.369	3733.45
474.74	3738.64
475.112	3781.58
475.484	3874.91
475.855	3965.98
476.227	3979.32
476.598	4098.86
476.97	4130.05
477.341	4217.05
477.713	4266.54
478.084	4314.9
478.455	4497.49
478.827	4448.91
479.198	4590.6
479.569	4639.19
479.94	4760.54
480.311	4797.15
480.682	4914.21
481.053	5054.77
481.424	5097.25
481.795	5204.37
482.166	5274.65
482.537	5304.93
482.908	5449.79
483.279	5520.52
483.65	5660.4
484.021	5741.76
484.391	5858.14
484.762	5926.84
485.133	5953.73
485.503	6070.79
485.874	6263.78
486.244	6348.75
486.615	6478.23
486.985	6618.34
487.356	6700.83
487.726	6708.74
488.097	6905.79
488.467	7018.11
488.837	7192.79
489.207	7257.2
489.578	7464.2
489.948	7512.1
490.318	7654.25
490.688	7797.07
491.058	7922.94
491.428	8069.83
491.798	8191.18
492.168	8341.46
492.538	8489.25
492.908	8601.57
493.278	8733.77
493.648	8850.15
494.017	9055.34
494.387	9152.29
494.757	9308.44
495.126	9470.25
495.496	9604.25
495.866	9705.95
496.235	9908.88
496.605	9948.2
496.974	10074.75
497.344	10230.45
497.713	10362.65
498.082	10571.69
498.452	10700.95
498.821	10883.99
499.19	10922.18
499.559	11115.4
499.928	11204.66
500.298	11449.18
500.667	11625.89
501.036	11626.35
501.405	11870.41
501.774	11956.06
502.143	12101.36
502.512	12264.52
502.88	12496.38
503.249	12506.32
503.618	12770.72
503.987	12844.62
504.356	12988.8
504.724	13102.47
505.093	13276.02
505.462	13429.46
505.83	13544.49
506.199	13718.72
506.567	13933.63
506.936	14015.21
507.304	14238.48
507.672	14395.99
508.041	14524.12
508.409	14721.41
508.777	14882.53
509.145	14957.78
509.514	15082.53
509.882	15282.07
510.25	15373.59
510.618	15644.32
510.986	15689.74
511.354	15782.62
511.722	16007.25
512.09	16257.41
512.458	16132.22
512.826	16394.58
513.193	16493.34
513.561	16681.58
513.929	16831.18
514.297	16908.69
514.664	17040.22
515.032	17189.36
515.4	17379.42
515.767	17538.06
516.135	17509.58
516.502	17498.06
516.869	17856.92
517.237	17919.74
517.604	17872.51
517.972	18189.79
518.339	18303.23
518.706	18391.37
519.073	18521.98
519.44	18615.54
519.808	18877.68
520.175	18821.64
520.542	19080.39
520.909	19216.2
521.276	19342.75
521.643	19487.16
522.009	19565.57
522.376	19781.16
522.743	19836.53
523.11	20147.03
523.477	20177.76
523.843	20259.11
524.21	20549.28
524.577	20645.09
524.943	20739.1
525.31	20800.57
525.676	21061.8
526.043	21191.52
526.409	21225.87
526.776	21476.48
527.142	21467.44
527.508	21649.13
527.874	21735.01
528.241	21990.37
528.607	21910.6
528.973	22199.18
529.339	22158.05
529.705	22397.59
530.071	22603.23
530.437	22649.79
530.803	22769.1
531.169	22722.33
531.535	22740.4
531.901	22920.97
532.267	22924.13
532.632	23080.96
532.998	23231.01
533.364	23213.39
533.73	23280.28
534.095	23479.14
534.461	23590.33
534.826	23535.41
535.192	23650.66
535.557	23708.06
535.923	23838.46
536.288	23827.61
536.653	23928.62
537.019	23796.42
537.384	23895.4
537.749	23980.15
538.114	23921.16
538.479	23959.58
538.845	24009.3
539.21	23937.21
539.575	23989.64
539.94	23958.23
540.305	24157.32
540.67	24155.06
541.034	24125.91
541.399	24232.12
541.764	24303.98
542.129	24332.45
542.494	24304.43
542.858	24423.52
543.223	24277.99
543.587	24381.94
543.952	24298.78
544.316	24472.34
544.681	24320.25
545.045	24449.96
545.41	24497.87
545.774	24420.59
546.138	24441.83
546.503	24594.14
546.867	24504.43
547.231	24663.07
547.595	24534.71
547.959	24650.64
548.324	24615.38
548.688	24647.93
549.052	24620.81
549.416	24553.69
549.779	24553.69
550.143	24586.91
550.507	24696.74
550.871	24658.55
551.235	24610.64
551.599	24916.62
551.962	24817.86
552.326	24820.12
552.689	24936.51
553.053	24807.7
553.417	24878.2
553.78	25022.15
554.143	24985.54
554.507	25061.02
554.87	25147.12
555.234	25234.35
555.597	25112.77
555.96	25232.54
556.323	25222.6
556.686	25135.82
557.05	25381.01
557.413	25412.43
557.776	25312.54
558.139	25492.2
558.502	25557.51
558.865	25510.28
559.228	25689.03
559.59	25659.65
559.953	25712.53
560.316	26028.91
560.679	25916.59
561.041	25987.33
561.404	26117.04
561.767	26215.12
562.129	26194.78
562.492	26422.12
562.854	26225.51
563.217	26363.81
563.579	26440.65
563.941	26521.32
564.304	26562.45
564.666	26817.81
565.028	26801.77
565.39	26906.85
565.753	27095.77
566.115	26991.82
566.477	27235.43
566.839	27243.79
567.201	27445.37
567.563	27399.04
567.925	27599.49
568.287	27535.99
568.648	27621.18
569.01	27732.14
569.372	27999.25
569.734	27853.49
570.095	28031.79
570.457	28050.32
570.819	28175.06
571.18	28138.46
571.542	28278.56
571.903	28218.68
572.265	28331.67
572.626	28469.97
572.987	28505.68
573.349	28643.75
573.71	28690.3
574.071	28822.96
574.432	28878.32
574.794	29124.42
575.155	29061.59
575.516	29082.61
575.877	29096.62
576.238	29175.94
576.599	29179.11
576.96	29276.73
577.32	29290.52
577.681	29314.02
578.042	29355.15
578.403	29305.43
578.763	29375.26
579.124	29424.3
579.485	29537.74
579.845	29483.73
580.206	29539.32
580.566	29562.82
580.927	29552.66
581.287	29569.6
581.648	29471.08
582.008	29542.26
582.368	29583.39
582.728	29506.78
583.089	29468.59
583.449	29539.55
583.809	29533.45
584.169	29593.33
584.529	29440.79
584.889	29617.06
585.249	29411.42
585.609	29288.93
585.969	29551.53
586.329	29403.96
586.688	29450.74
587.048	29488.93
587.408	29349.72
587.768	29272.89
588.127	29322.83
588.487	29118.09
588.846	29472.88
589.206	29114.25
589.565	29050.97
589.925	29158.99
590.284	29049.39
590.643	29076.74
591.003	29153.12
591.362	29219.1
591.721	29163.96
592.08	29078.09
592.44	29216.62
592.799	29108.83
593.158	29103.18
593.517	28999.9
593.876	29175.26
594.235	29141.59
594.593	29019.34
594.952	28982.05
595.311	28989.51
595.67	29077.87
596.029	29208.03
596.387	29104.98
596.746	29199.44
597.104	29058.43
597.463	29063.85
597.822	29252.32
598.18	28990.64
598.538	29079
598.897	29218.2
599.255	28950.41
599.613	29352.43
599.972	29096.17
600.33	29144.76
600.688	29024.76
601.046	29142.04
601.404	29380.68
601.762	29177.07
602.12	29189.73
602.478	29228.6
602.836	29346.33
603.194	29110.41
603.552	29263.62
603.91	29142.72
604.268	29190.86
604.625	29175.72
604.983	29395.37
605.341	29245.77
605.698	29520.57
606.056	29549.94
606.413	29386.56
606.771	29504.07
607.128	29486.67
607.485	29340.23
607.843	29439.66
608.2	29523.73
608.557	29521.47
608.914	29422.26
609.272	29667.45
609.629	29816.6
609.986	29850.27
610.343	29761.69
610.7	29908.58
611.057	29834
611.414	29844.4
611.771	29862.48
612.127	29909.26
612.484	29855.25
612.841	30033.09
613.198	29913.1
613.554	29930.95
613.911	30073.32
614.267	30139.98
614.624	30141.79
614.98	30187.67
615.337	30325.29
615.693	30312.64
616.05	30348.11
616.406	30416.81
616.762	30444.61
617.118	30490.94
617.475	30378.85
617.831	30539.3
618.187	30502.91
618.543	30590.14
618.899	30895.9
619.255	30747.2
619.611	30655
619.967	30876.69
620.323	30884.15
620.678	30671.95
621.034	30713.98
621.39	30805.73
621.746	30675.79
622.101	30970.47
622.457	30830.59
622.812	30956.91
623.168	30908.55
623.523	30855.67
623.879	30946.97
624.234	30866.74
624.589	30991.71
624.945	30975.44
625.3	31065.38
625.655	31104.03
626.01	31029.45
626.365	30934.54
626.72	30937.03
627.075	30878.5
627.43	31124.82
627.785	30964.82
628.14	31003.92
628.495	30854.99
628.85	31141.77
629.205	30885.73
629.559	31031.26
629.914	30883.92
630.269	30805.05
630.623	30735.9
630.978	30689.35
631.332	30920.53
631.687	30822.23
632.041	30772.28
632.396	30782.91
632.75	30681.21
633.104	30732.06
633.459	30532.29
633.813	30588.33
634.167	30518.73
634.521	30585.17
634.875	30612.97
635.229	30464.27
635.583	30429.69
635.937	30243.94
636.291	30274.44
636.645	30312.64
636.999	30258.4
637.352	30133.88
637.706	30062.25
638.06	30158.51
638.413	30148.12
638.767	29997.16
639.121	30112.87
639.474	29933.21
639.828	29916.26
640.181	29917.17
640.534	29903.83
640.888	29760.11
641.241	29646.89
641.594	29672.65
641.947	29810.73
642.301	29594.69
642.654	29692.99
643.007	29525.76
643.36	29691.86
643.713	29678.08
644.066	29757.85
644.419	29457.29
644.771	29010.3
645.124	28836.74
645.477	28845.78
645.83	28822.73
646.182	28832.45
646.535	28688.95
646.888	28951.99
647.24	28838.32
647.593	28897.31
647.945	28825.89
648.298	28762.17
648.65	28545.45
649.002	28333.25
649.355	28086.7
649.707	28107.27
650.059	27905.92
650.411	28536.18
650.763	28712.23
651.115	29155.38
651.467	29075.38
651.819	28997.42
652.171	28924.88
652.523	28897.08
652.875	28851.66
653.227	28848.94
653.578	29066.34
653.93	28967.59
654.282	28878.77
654.633	28848.94
654.985	28954.7
655.337	28871.54
655.688	28794.26
656.039	28951.32
656.391	28745.22
656.742	28889.17
657.094	28769.17
657.445	28843.75
657.796	28932.78
658.147	28646.69
658.498	28819.79
658.849	28896.18
659.2	28772.11
659.551	28773.01
659.902	28960.13
660.253	28778.66
660.604	28911.99
660.955	28791.09
661.306	28846.46
661.656	28728.04
662.007	28823.18
662.358	28835.84
662.708	28905.21
663.059	28958.32
663.409	28705.22
663.76	28852.79
664.11	28954.03
664.461	28907.7
664.811	28924.42
665.161	28937.53
665.511	28949.06
665.862	28943.86
666.212	29069.96
666.562	29021.14
666.912	28883.07
667.262	28760.59
667.612	28847.81
667.962	28847.81
668.312	28810.3
668.662	29044.65
669.011	28915.38
669.361	28779.79
669.711	28964.65
670.06	28843.75
670.41	28803.3
670.76	28737.76
671.109	28831.32
671.459	28811.88
671.808	28695.5
672.157	28859.34
672.507	28654.37
672.856	28656.18
673.205	28738.89
673.554	28785.22
673.904	28709.74
674.253	29014.59
674.602	28743.41
674.951	28408.5
675.3	28199.7
675.649	28585.45
675.998	28702.06
676.346	28653.47
676.695	28706.35
677.044	28370.09
677.393	28741.83
677.741	28788.61
678.09	28521.27
678.438	28545.68
678.787	28603.3
679.135	28523.98
679.484	28276.98
679.832	28490.08
680.181	28290.54
680.529	28425.45
680.877	28271.56
681.225	28232.69
681.573	28375.96
681.922	28141.62
682.27	28096.65
682.618	28224.1
682.966	28068.4
683.314	28073.15
683.661	28145.46
684.009	27950.89
684.357	27926.71
684.705	27855.3
685.053	27808.29
685.4	27726.71
685.748	27582.76
686.095	27586.61
686.443	27419.38
686.79	27461.86
687.138	27422.32
687.485	27498.25
687.832	27256.9
688.18	27310.68
688.527	27141.65
688.874	27154.07
689.221	27211.25
689.568	26901.2
689.915	26861.2
690.262	26907.75
690.609	26835.89
690.956	26616.24
691.303	26637.93
691.65	26562
691.997	26454.43
692.344	26370.37
692.69	26283.36
693.037	26306.86
693.383	26017.38
693.73	26132.86
694.077	25938.29
694.423	25907.78
694.769	25796.6
695.116	25670.5
695.462	25642.02
695.808	25599.76
696.155	25357.51
696.501	25322.03
696.847	25343.5
697.193	25053.34
697.539	25176.73
697.885	24985.32
698.231	24966.79
698.577	24885.66
698.923	24836.39
699.269	24635.72
699.614	24635.72
699.96	24478.89
700.306	24445.67
700.651	24263.08
700.997	24142.18
701.342	24289.97
701.688	24205.68
702.033	24001.84
702.379	24100.6
702.724	23911
703.069	23946.02
703.415	23721.17
703.76	23752.36
704.105	23729.53
704.45	23506.26
704.795	23464.23
705.14	23380.39
705.485	23365.47
705.83	23241.63
706.175	23256.32
706.52	23153.05
706.865	23077.12
707.209	22992.38
707.554	22951.25
707.899	22885.03
708.243	22851.14
708.588	22816.11
708.932	22701.08
709.277	22788.54
709.621	22617.92
709.966	22562.1
710.31	22607.3
710.654	22465.61
710.998	22393.3
711.342	22352.39
711.687	22332.96
712.031	22157.82
712.375	22030.82
712.719	22148.33
713.063	22033.98
713.407	22104.04
713.75	22028.56
714.094	22071.72
714.438	21969.13
714.782	21888.22
715.125	21843.71
715.469	21885.06
715.812	21809.81
716.156	21800.54
716.499	21679.87
716.843	21787.21
717.186	21540.89
717.53	21807.1
717.873	21717.83
718.216	21698.4
718.559	21566.65
718.902	21385.19
719.246	21467.22
719.589	21416.37
719.932	21380.89
720.275	21346.09
720.617	21412.3
720.96	21273.1
721.303	21406.88
721.646	21423.38
721.989	21244.85
722.331	21234
722.674	21239.88
723.016	21216.6
723.359	21034.69
723.701	21143.16
724.044	21116.72
724.386	21118.53
724.729	21191.97
725.071	21102.03
725.413	21056.83
725.755	21078.08
726.097	21042.14
726.439	20879.44
726.782	20912.66
727.124	21149.94
727.465	21082.6
727.807	20916.05
728.149	21094.12
728.491	20863.39
728.833	20947.01
729.175	20885.09
729.516	20847.12
729.858	20862.49
730.199	20910.17
730.541	20843.96
730.882	20875.37
731.224	20986.55
731.565	20794.02
731.906	20996.27
732.248	20963.5
732.589	20935.25
732.93	20842.6
733.271	20963.95
733.612	20789.27
733.953	20938.42
734.294	20884.86
734.635	20761.7
734.976	21008.02
735.317	20891.41
735.658	20895.48
735.999	20846.44
736.339	20979.1
736.68	20917.63
737.021	20961.24
737.361	20832.88
737.702	21039.21
738.042	21005.99
738.383	21196.04
738.723	21201.24
739.063	21121.46
739.404	21243.04
739.744	21140.67
740.084	21097.06
740.424	21231.07
740.764	21215.25
741.104	21288.47
741.444	21281.69
741.784	21275.36
742.124	21470.16
742.464	21438.07
742.804	21392.19
743.143	21429.93
743.483	21593.77
743.823	21493.66
744.162	21589.93
744.502	21678.96
744.841	21670.6
745.181	21739.98
745.52	21723.71
745.86	21943.59
746.199	21932.74
746.538	21931.39
746.877	22171.15
747.216	22208.22
747.556	22316.69
747.895	22349
748.234	22422
748.573	22384.71
748.911	22590.58
749.25	22709.9
749.589	22757.81
749.928	22846.39
750.267	22914.41
750.605	22905.15
750.944	23078.48
751.283	23201.86
751.621	23394.17
751.96	23385.81
752.298	23497.9
752.636	23625.13
752.975	23729.98
753.313	23937.89
753.651	24026.25
753.989	24095.85
754.327	24189.41
754.666	24153.7
755.004	24398.67
755.342	24532.9
755.679	24618.55
756.017	24658.55
756.355	24897.18
756.693	24997.29
757.031	25342.37
757.368	25180.79
757.706	25370.84
758.044	25448.81
758.381	25585.98
758.719	25536.04
759.056	25744.39
759.394	25715.47
759.731	25680.67
760.068	25956.82
760.405	26082.24
760.743	26026.19
761.08	26250.82
761.417	26246.3
761.754	26331.72
762.091	26397.48
762.428	26390.7
762.765	26476.13
763.102	26524.71
763.438	26568.78
763.775	26526.75
764.112	26743.69
764.449	26791.6
764.785	26824.37
765.122	26792.73
765.458	26761.54
765.795	26944.14
766.131	26825.27
766.467	27005.38
766.804	26941.42
767.14	26743.24
767.476	26903.69
767.812	26930.58
768.148	27075.66
768.485	26980.29
768.821	26958.37
769.157	26965.6
769.492	27005.15
769.828	26949.56
770.164	26834.76
770.5	26782.33
770.836	26976.9
771.171	26768.55
771.507	26775.55
771.842	26708.44
772.178	26766.06
772.513	26829.34
772.849	26691.49
773.184	26753.18
773.519	26669.12
773.855	26470.48
774.19	26519.51
774.525	26426.18
774.86	26506.41
775.195	26513.64
775.53	26503.47
775.865	26309.12
776.2	26211.95
776.535	26048.34
776.87	26051.28
777.205	25934.45
777.539	25891.06
777.874	25992.52
778.209	25641.57
778.543	25877.95
778.878	25700.1
779.212	25797.27
779.547	25467.11
779.881	25523.38
780.215	25397.96
780.55	25527.22
780.884	25290.39
781.218	25326.78
781.552	25397.28
781.886	25164.75
782.22	24962.27
782.554	25050.17
782.888	24801.14
783.222	24782.84
783.556	24734.48
783.889	24685.89
784.223	24553.24
784.557	24490.64
784.89	24554.82
785.224	24441.38
785.557	24247.94
785.891	24276.86
786.224	24181.5
786.558	24198.45
786.891	24052.23
787.224	23777.44
787.557	23727.95
787.891	23735.86
788.224	23622.64
788.557	23578.8
788.89	23658.35
789.223	23677.56
789.556	23443.66
789.888	23409.54
790.221	23326.15
790.554	23259.04
790.887	23296.32
791.219	23130.23
791.552	23057.91
791.884	23023.79
792.217	22979.27
792.549	22825.83
792.882	22668.77
793.214	22693.63
793.546	22673.29
793.879	22548.77
794.211	22323.47
794.543	22491.15
794.875	22303.58
795.207	22414.76
795.539	22283.92
795.871	22202.79
796.203	22071.95
796.535	22020.88
796.867	21982.23
797.198	21906.08
797.53	21878.51
797.862	21709.02
798.193	21832.86
798.525	21676.48
798.856	21589.93
799.188	21375.24
799.519	21377.05
799.85	21313.1
800.182	21258.41
800.513	21436.26
800.844	21101.13
801.175	21256.15
801.506	21179.54
801.837	21068.81
802.168	21112.88
802.499	21011.86
802.83	20816.84
803.161	20845.54
803.491	20817.74
803.822	20873.11
804.153	20662.49
804.483	20557.64
804.814	20488.03
805.145	20522.16
805.475	20603.29
805.805	20491.2
806.136	20446.23
806.466	20387.47
806.796	20264.54
807.126	20122.17
807.457	20191.77
807.787	20069.97
808.117	20140.47
808.447	19936.18
808.777	20062.74
809.107	19890.31
809.436	19809.18
809.766	19892.8
810.096	19910.65
810.426	19778.67
810.755	19746.13
811.085	19653.93
811.414	19716.53
811.744	19539.13
812.073	19602.63
812.403	19515.18
812.732	19439.47
813.061	19525.35
813.39	19425.01
813.719	19354.73
814.049	19290.55
814.378	19276.77
814.707	19175.53
815.036	19234.06
815.365	19055.98
815.693	19045.13
816.022	18981.63
816.351	19001.75
816.68	18847.85
817.008	18968.53
817.337	18818.02
817.665	18872.94
817.994	18836.33
818.322	18804.92
818.651	18767.63
818.979	18686.95
819.307	18714.3
819.636	18680.4
819.964	18568.76
820.292	18559.95
820.62	18592.27
820.948	18607.63
821.276	18667.29
821.604	18510.69
821.932	18678.14
822.259	18620.06
822.587	18618.48
822.915	18459.84
823.243	18605.82
823.57	18550.91
823.898	18609.44
824.225	18549.55
824.553	18427.75
824.88	18475.66
825.207	18668.2
825.535	18456.45
825.862	18644.02
826.189	18500.52
826.516	18696.22
826.843	18733.5
827.17	18660.96
827.497	18720.17
827.824	18752.04
828.151	18707.29
828.478	18585.94
828.805	18653.73
829.131	18656.67
829.458	18655.09
829.785	18509.1
830.111	18581.64
830.438	18610.8
830.764	18578.71
831.09	18655.77
831.417	18594.98
831.743	18727.86
832.069	18630.91
832.395	18619.38
832.722	18611.7
833.048	18563.34
833.374	18705.48
833.7	18528.09
834.026	18578.48
834.351	18573.06
834.677	18520.18
835.003	18504.36
835.329	18556.11
835.654	18457.81
835.98	18366.28
836.306	18543.23
836.631	18274.31
836.956	18592.49
837.282	18460.52
837.607	18394.08
837.932	18332.61
838.258	18309.56
838.583	18247.64
838.908	18293.74
839.233	18277.47
839.558	18192.95
839.883	18171.71
840.208	18117.25
840.533	18195.44
840.858	18113.41
841.182	18114.54
841.507	18064.14
841.832	18014.65
842.156	18023.47
842.481	18012.85
842.805	17931.27
843.13	17727.66
843.454	17876.35
843.778	17807.88
844.103	17756.13
844.427	17813.75
844.751	17835.45
845.075	17773.53
845.399	17679.52
845.723	17522.69
846.047	17648.79
846.371	17542.58
846.695	17382.13
847.019	17365.4
847.343	17269.81
847.666	17153.21
847.99	17190.04
848.313	17119.54
848.637	17150.04
848.96	16925.87
849.284	17025.75
849.607	16853.55
849.931	16793.89
850.254	16687.68
850.577	16564.97
850.9	16463.28
851.223	16521.59
851.546	16398.42
851.869	16334.02
852.192	16414.7
852.515	16285.66
852.838	16219.22
853.161	16201.14
853.483	16080.02
853.806	16117.98
854.129	16030.3
854.451	15993.46
854.774	15855.61
855.096	15838.67
855.419	15749.4
855.741	15765.45
856.063	15602.51
856.385	15527.49
856.708	15565.23
857.03	15514.15
857.352	15445
857.674	15431.67
857.996	15358.9
858.318	15287.95
858.64	15344.44
858.961	15217.66
859.283	15301.05
859.605	15140.6
859.926	15134.05
860.248	15089.53
860.57	14989.42
860.891	14975.41
861.212	14915.75
861.534	14994.62
861.855	14924.11
862.176	14923.89
862.498	15021.06
862.819	14898.35
863.14	14902.87
863.461	14904
863.782	14767.96
864.103	14732.48
864.424	14779.03
864.745	14738.81
865.065	14677.79
865.386	14615.42
865.707	14686.15
866.027	14658.36
866.348	14583.11
866.668	14562.77
866.989	14463.79
867.309	14424.01
867.63	14428.76
867.95	14450.23
868.27	14323
868.59	14379.95
868.91	14276.9
869.23	14297.92
869.55	14251.14
869.87	14248.65
870.19	14209.1
870.51	14194.41
870.83	14161.2
871.15	14098.15
871.469	14147.64
871.789	14158.94
872.109	14096.34
872.428	14167.75
872.748	14135.89
873.067	14024.48
873.386	14054.53
873.706	14009.11
874.025	13995.32
874.344	13962.56
874.663	14043.68
874.982	13887.98
875.301	13973.18
875.62	13793.07
875.939	13852.05
876.258	13801.43
876.577	13818.83
876.896	13809.57
877.214	13725.5
877.533	13749.91
877.852	13773.86
878.17	13638.27
878.489	13708.33
878.807	13653.86
879.125	13689.12
879.444	13638.27
879.762	13635.79
880.08	13682.34
880.398	13516.24
880.716	13545.62
881.034	13518.05
881.352	13450.25
881.67	13442.57
881.988	13429.46
882.306	13318.28
882.624	13405.06
882.941	13296.13
883.259	13332.06
883.577	13286.87
883.894	13271.95
884.212	13213.2
884.529	13224.72
884.846	13114.22
885.164	13069.02
885.481	13078.06
885.798	12990.6
886.115	13066.53
886.432	13055.46
886.75	12957.39
887.067	12971.85
887.383	13042.35
887.7	12923.71
888.017	12825.19
888.334	12908.57
888.651	12813.21
888.967	12756.26
889.284	12750.84
889.6	12650.5
889.917	12591.29
890.233	12695.92
890.55	12678.75
890.866	12559.88
891.182	12532.09
891.498	12490.73
891.815	12429.49
892.131	12340
892.447	12412.99
892.763	12345.2
893.079	12316.27
893.395	12230.62
893.71	12295.93
894.026	12259.32
894.342	12182.26
894.657	12130.06
894.973	12115.15
895.289	12147.46
895.604	12050.97
895.92	11944.3
896.235	11926
896.55	11900.24
896.865	11896.62
897.181	11892.33
897.496	11800.13
897.811	11743.63
898.126	11665.44
898.441	11668.83
898.756	11617.53
899.071	11564.43
899.386	11587.93
899.7	11455.73
900.015	11452.11
900.33	11434.04
900.644	11394.04
900.959	11348.84
901.273	11255.74
901.588	11138.22
901.902	11168.51
902.216	11174.38
902.531	11078.11
902.845	11147.72
903.159	11051.45
903.473	11041.28
903.787	10995.63
904.101	10914.28
904.415	10927.38
904.729	10828.85
905.042	10821.85
905.356	10766.48
905.67	10799.25
905.984	10702.3
906.297	10595.87
906.611	10573.72
906.924	10609.2
907.237	10521.52
907.551	10489.43
907.864	10500.27
908.177	10408.98
908.491	10392.03
908.804	10374.85
909.117	10260.06
909.43	10218.47
909.743	10193.16
910.056	10161.98
910.368	10154.97
910.681	10117.01
910.994	10083.56
911.307	9996.56
911.619	9945.94
911.932	9925.37
912.244	9893.06
912.557	9798.82
912.869	9734.19
913.181	9826.39
913.494	9798.15
913.806	9667.08
914.118	9606.74
914.43	9626.63
914.742	9539.62
915.054	9503.92
915.366	9539.4
915.678	9397.48
915.99	9457.59
916.302	9380.98
916.613	9266.63
916.925	9293.3
917.236	9319.29
917.548	9183.25
917.859	9246.52
918.171	9096.47
918.482	9110.03
918.794	9060.54
919.105	9083.14
919.416	9000.2
919.727	8933.54
920.038	8863.71
920.349	8865.97
920.66	8775.12
920.971	8774.9
921.282	8808.12
921.593	8719.76
921.903	8703.26
922.214	8685.86
922.525	8645.86
922.835	8521.57
923.146	8572.64
923.456	8489.48
923.767	8474.57
924.077	8456.94
924.387	8383.72
924.697	8354.34
925.008	8337.85
925.318	8231.18
925.628	8258.98
925.938	8194.35
926.248	8173.33
926.558	8177.4
926.867	8158.19
927.177	8101.47
927.487	8066.89
927.796	7975.14
928.106	8041.36
928.416	8009.94
928.725	7947.57
929.034	7901.92
929.344	7986.44
929.653	7887.24
929.962	7868.93
930.271	7789.16
930.581	7761.59
930.89	7644.98
931.199	7664.42
931.508	7621.48
931.817	7595.49
932.125	7571.54
932.434	7582.16
932.743	7455.84
933.051	7463.29
933.36	7451.32
933.669	7397.31
933.977	7345.78
934.286	7311.66
934.594	7311.88
934.902	7274.82
935.21	7234.6
935.519	7194.37
935.827	7178.78
936.135	7143.3
936.443	7129.52
936.751	7081.38
937.059	7079.8
937.367	7014.04
937.674	7018.33
937.982	7020.82
938.29	6976.07
938.597	6971.33
938.905	6838
939.213	6900.6
939.52	6771.33
939.827	6857.43
940.135	6781.5
940.442	6754.38
940.749	6674.16
941.056	6698.57
941.363	6670.09
941.67	6625.8
941.977	6526.59
942.284	6578.8
942.591	6534.28
942.898	6577.44
943.205	6521.17
943.511	6471.45
943.818	6470.1
944.125	6379.25
944.431	6370.21
944.738	6366.6
945.044	6352.36
945.35	6314.4
945.657	6252.25
945.963	6290.89
946.269	6221.07
946.575	6214.96
946.881	6123.44
947.187	6138.36
947.493	6061.97
947.799	6094.51
948.105	6066.49
948.41	6018.81
948.716	5989.66
949.022	6007.96
949.327	5974.74
949.633	5918.25
949.938	5869.89
950.244	5917.57
950.549	5883
950.854	5802.32
951.16	5784.69
951.465	5775.2
951.77	5765.48
952.075	5723.9
952.38	5704.69
952.685	5709.21
952.99	5692.72
953.294	5673.73
953.599	5628.99
953.904	5586.73
954.209	5539.05
954.513	5588.99
954.818	5496.34
955.122	5524.13
955.426	5428.54
955.731	5462.67
956.035	5420.18
956.339	5384.7
956.643	5340.18
956.948	5360.97
957.252	5278.04
957.556	5354.2
957.86	5289.34
958.163	5280.07
958.467	5239.4
958.771	5219.96
959.075	5205.27
959.378	5149.45
959.682	5160.08
959.985	5108.33
960.289	5051.38
960.592	5059.97
960.896	5012.74
961.199	5027.88
961.502	4977.93
961.805	5033.07
962.108	4934.09
962.411	4971.38
962.714	4911.95
963.017	4870.37
963.32	4885.73
963.623	4865.39
963.926	4848.67
964.228	4815.68
964.531	4779.3
964.833	4801.44
965.136	4737.04
965.438	4740.43
965.741	4710.6
966.043	4723.48
966.345	4665.85
966.648	4685.74
966.95	4644.84
967.252	4637.83
967.554	4589.92
967.856	4568.45
968.158	4564.61
968.46	4583.82
968.761	4485.07
969.063	4572.3
969.365	4459.53
969.666	4435.58
969.968	4438.97
970.269	4460.43
970.571	4415.24
970.872	4378.63
971.174	4331.85
971.475	4362.58
971.776	4335.69
972.077	4302.7
972.378	4305.41
972.679	4247.11
972.98	4255.24
973.281	4219.54
973.582	4175.24
973.883	4209.14
974.183	4186.99
974.484	4157.62
974.785	4158.97
975.085	4090.5
975.386	4115.36
975.686	4077.17
975.986	3992.2
976.287	4028.58
976.587	3976.38
976.887	4003.04
977.187	4009.82
977.487	4004.17
977.787	3924.63
978.087	3907.45
978.387	3885.99
978.687	3916.95
978.987	3877.17
979.286	3810.06
979.586	3857.51
979.885	3803.28
980.185	3805.08
980.484	3813.67
980.784	3773.45
981.083	3734.12
981.382	3762.15
981.682	3735.25
981.981	3722.6
982.28	3706.56
982.579	3648.48
982.878	3698.42
983.177	3625.2
983.475	3687.57
983.774	3610.06
984.073	3550.4
984.372	3585.65
984.67	3545.88
984.969	3583.85
985.267	3540.68
985.566	3532.1
985.864	3506.33
986.162	3533.68
986.461	3453.68
986.759	3457.52
987.057	3424.53
987.355	3380.24
987.653	3396.05
987.951	3378.43
988.249	3360.58
988.547	3356.51
988.844	3339.11
989.142	3398.77
989.44	3307.7
989.737	3299.33
990.035	3281.93
990.332	3276.51
990.63	3233.57
990.927	3278.32
991.224	3210.3
991.521	3196.29
991.819	3224.99
992.116	3213.69
992.413	3166.23
992.71	3182.5
993.006	3125.1
993.303	3082.39
993.6	3100.24
993.897	3101.15
994.193	3114.03
994.49	3074.71
994.787	3058.66
995.083	2999.91
995.379	3040.81
995.676	3000.81
995.972	2978.44
996.268	2952.22
996.565	2963.75
996.861	2937.76
997.157	2921.72
997.453	2911.1
997.749	2875.62
998.044	2864.77
998.34	2866.35
998.636	2820.02
998.932	2843.07
999.227	2836.97
999.523	2803.98
999.818	2766.24
1000.114	2733.47
1000.409	2772.34
1000.704	2745.68
1001	2739.57
1001.295	2712.23
1001.59	2694.83
1001.885	2703.19
1002.18	2674.27
1002.475	2646.92
1002.77	2672.91
1003.065	2628.17
1003.359	2635.85
1003.654	2639.24
1003.949	2570.54
1004.243	2595.85
1004.538	2567.6
1004.832	2569.41
1005.127	2539.58
1005.421	2529.64
1005.715	2503.42
1006.009	2506.36
1006.304	2459.58
1006.598	2426.59
1006.892	2414.84
1007.186	2415.52
1007.48	2405.12
1007.773	2428.85
1008.067	2383.88
1008.361	2379.36
1008.655	2348.85
1008.948	2370.55
1009.242	2319.02
1009.535	2315.86
1009.829	2315.18
1010.122	2283.54
1010.415	2316.08
1010.708	2272.69
1011.001	2251
1011.295	2246.93
1011.588	2238.8
1011.881	2229.53
1012.173	2203.77
1012.466	2179.14
1012.759	2177.56
1013.052	2171.23
1013.344	2155.64
1013.637	2131.68
1013.93	2142.08
1014.222	2099.82
1014.514	2104.79
1014.807	2089.42
1015.099	2055.98
1015.391	2081.97
1015.683	2064.34
1015.976	2044.23
1016.268	2004.23
1016.56	2055.3
1016.851	1997.9
1017.143	1964.23
1017.435	1966.49
1017.727	1934.85
1018.018	1964.68
1018.31	1908.86
1018.602	1935.98
1018.893	1911.8
1019.185	1910.9
1019.476	1892.82
1019.767	1891.01
1020.058	1875.87
1020.35	1874.51
1020.641	1839.71
1020.932	1813.5
1021.223	1799.03
1021.514	1794.29
1021.804	1772.82
1022.095	1768.3
1022.386	1774.85
1022.677	1747.74
1022.967	1757.23
1023.258	1720.84
1023.548	1703.67
1023.839	1705.03
1024.129	1699.15
1024.419	1680.39
1024.709	1645.82
1025	1656.21
1025.29	1617.57
1025.58	1622.77
1025.87	1602.43
1026.16	1608.08
1026.449	1611.47
1026.739	1605.59
1027.029	1570.79
1027.319	1568.76
1027.608	1568.76
1027.898	1571.24
1028.187	1550.68
1028.477	1516.33
1028.766	1549.78
1029.055	1513.39
1029.344	1493.51
1029.634	1488.99
1029.923	1479.95
1030.212	1479.04
1030.501	1438.59
1030.79	1438.37
1031.078	1428.2
1031.367	1412.38
1031.656	1430
1031.945	1411.93
1032.233	1408.76
1032.522	1415.09
1032.81	1391.14
1033.099	1382.55
1033.387	1372.83
1033.675	1357.46
1033.963	1369.22
1034.251	1353.17
1034.54	1351.81
1034.828	1318.82
1035.116	1314.53
1035.403	1307.3
1035.691	1286.05
1035.979	1271.14
1036.267	1268.2
1036.554	1273.62
1036.842	1273.4
1037.129	1264.13
1037.417	1238.15
1037.704	1235.66
1037.992	1230.46
1038.279	1228.88
1038.566	1215.32
1038.853	1215.32
1039.14	1215.32
