Data from 7726_FLMS001491_004.txt Node
Date: Thu Apr 19 15:17:04 BST 2018
User: hsy
Spectrometer: FLMS00149
Trigger mode: 0
Integration Time (sec): 1.000000E-2
Scans to average: 10
Electric dark correction enabled: true
Nonlinearity correction enabled: false
Boxcar width: 0
XAxis mode: Wavelengths
Number of Pixels in Spectrum: 2048
>>>>>Begin Spectral Data<<<<<
341.393	-16.75
341.776	-16.75
342.16	-16.75
342.543	-48.39
342.927	-75.05
343.31	-79.57
343.693	-61.72
344.077	-48.61
344.46	-51.1
344.843	-46.81
345.226	-57.65
345.61	-33.47
345.993	-14.27
346.376	8.11
346.759	15.79
347.142	15.11
347.525	63.02
347.908	67.54
348.291	48.78
348.674	84.94
349.057	89.91
349.44	128.1
349.823	139.4
350.206	170.81
350.588	208.1
350.971	244.49
351.354	242.45
351.737	257.82
352.119	268.67
352.502	278.16
352.884	302.79
353.267	316.35
353.65	310.47
354.032	344.82
354.414	344.82
354.797	346.4
355.179	335.78
355.562	350.7
355.944	353.63
356.326	371.26
356.709	373.52
357.091	351.83
357.473	366.29
357.855	397.48
358.238	355.89
358.62	375.1
359.002	354.31
359.384	384.37
359.766	376.69
360.148	381.43
360.53	371.71
360.912	372.39
361.294	362.67
361.676	375.78
362.057	359.51
362.439	362
362.821	362
363.203	391.15
363.584	368.78
363.966	382.33
364.348	377.81
364.729	372.62
365.111	348.66
365.493	373.3
365.874	380.53
366.256	351.15
366.637	356.12
367.019	353.18
367.4	353.63
367.781	376.01
368.163	369.91
368.544	369.68
368.925	368.78
369.306	363.58
369.688	373.52
370.069	344.82
370.45	382.56
370.831	360.41
371.212	373.52
371.593	376.46
371.974	358.38
372.355	369.23
372.736	361.32
373.117	367.65
373.498	364.03
373.879	380.07
374.26	372.62
374.641	367.65
375.021	357.02
375.402	378.94
375.783	373.97
376.163	397.25
376.544	401.32
376.925	398.83
377.305	406.29
377.686	403.12
378.066	389.79
378.447	397.7
378.827	403.58
379.208	398.61
379.588	405.16
379.968	428.66
380.349	417.36
380.729	417.36
381.109	416.46
381.489	412.84
381.87	405.16
382.25	411.03
382.63	441.99
383.01	448.77
383.39	447.87
383.77	432.95
384.15	446.51
384.53	441.54
384.91	452.16
385.29	439.73
385.67	470.47
386.049	422.11
386.429	447.87
386.809	466.85
387.189	447.42
387.568	443.12
387.948	458.49
388.328	449
388.707	453.97
389.087	478.6
389.466	498.49
389.846	503.91
390.225	492.16
390.605	482.67
390.984	496.91
391.363	509.11
391.743	494.65
392.122	500.3
392.501	522.9
392.881	504.37
393.26	521.31
393.639	509.34
394.018	523.35
394.397	538.04
394.776	532.39
395.155	533.74
395.534	526.96
395.913	541.65
396.292	552.05
396.671	554.31
397.05	553.18
397.429	556.57
397.808	566.51
398.186	559.73
398.565	569.45
398.944	572.61
399.323	568.32
399.701	568.32
400.08	582.33
400.458	588.2
400.837	565.61
401.215	581.43
401.594	614.87
401.972	597.47
402.351	606.06
402.729	595.66
403.107	622.33
403.486	599.73
403.864	617.58
404.242	618.49
404.62	618.94
404.999	643.34
405.377	656.9
405.755	648.99
406.133	630.01
406.511	650.12
406.889	665.94
407.267	671.82
407.645	679.73
408.023	688.99
408.401	684.47
408.779	719.95
409.156	728.99
409.534	698.26
409.912	732.61
410.29	720.18
410.667	730.12
411.045	768.54
411.422	745.26
411.8	750.69
412.178	786.17
412.555	792.04
412.933	786.62
413.31	776.45
413.687	791.82
414.065	819.61
414.442	817.35
414.819	822.1
415.197	825.94
415.574	829.55
415.951	834.53
416.328	853.73
416.705	861.42
417.082	857.8
417.46	875.2
417.837	891.93
418.214	888.08
418.591	900.51
418.967	918.14
419.344	929.89
419.721	927.18
420.098	917.69
420.475	941.87
420.852	921.76
421.228	967.86
421.605	974.64
421.982	956.1
422.358	1000.62
422.735	981.41
423.111	986.61
423.488	976.67
423.864	1006.5
424.241	1008.98
424.617	1027.06
424.994	1056.44
425.37	1028.87
425.746	1004.01
426.123	1038.36
426.499	1054.41
426.875	1063.9
427.251	1096.44
427.627	1083.11
428.003	1091.47
428.379	1119.04
428.756	1107.97
429.132	1150.68
429.507	1153.84
429.883	1163.11
430.259	1192.26
430.635	1186.61
431.011	1186.38
431.387	1226.83
431.763	1262.31
432.138	1252.59
432.514	1248.07
432.89	1269.32
433.265	1296.43
433.641	1328.3
434.016	1305.7
434.392	1331.01
434.767	1385.92
435.143	1346.15
435.518	1366.49
435.894	1378.69
436.269	1422.31
436.644	1438.13
437.02	1402.42
437.395	1443.55
437.77	1439.48
438.145	1484.68
438.52	1469.31
438.895	1529.65
439.271	1493.04
439.646	1527.39
440.021	1530.1
440.395	1554.51
440.77	1537.11
441.145	1577.11
441.52	1582.3
441.895	1570.78
442.27	1602.42
442.645	1594.73
443.019	1583.43
443.394	1635.86
443.769	1645.35
444.143	1623.88
444.518	1669.31
444.892	1654.84
445.267	1643.09
445.641	1674.96
446.016	1693.03
446.39	1707.5
446.764	1684.9
447.139	1696.88
447.513	1721.73
447.887	1760.6
448.262	1712.47
448.636	1765.35
449.01	1780.04
449.384	1775.74
449.758	1802.18
450.132	1818
450.506	1817.33
450.88	1846.48
451.254	1842.18
451.628	1870.66
452.002	1893.26
452.376	1945.46
452.75	1923.54
453.123	1941.16
453.497	1987.49
453.871	1978.45
454.244	2025.46
454.618	2013.7
454.992	2087.15
455.365	2110.42
455.739	2137.09
456.112	2161.5
456.486	2170.99
456.859	2193.59
457.232	2232.23
457.606	2245.34
457.979	2305.22
458.352	2334.37
458.725	2328.95
459.099	2338.44
459.472	2413.69
459.845	2441.94
460.218	2424.09
460.591	2493.24
460.964	2482.62
461.337	2494.82
461.71	2569.4
462.083	2613.46
462.456	2599.45
462.829	2635.38
463.201	2654.14
463.574	2670.18
463.947	2746.11
464.32	2742.72
464.692	2798.09
465.065	2830.63
465.438	2840.35
465.81	2913.12
466.183	2891.2
466.555	2979.33
466.928	3004.19
467.3	2969.16
467.672	3039.67
468.045	3100.91
468.417	3125.54
468.789	3138.87
469.161	3206.67
469.534	3230.85
469.906	3288.25
470.278	3292.31
470.65	3293.67
471.022	3380.22
471.394	3435.36
471.766	3478.07
472.138	3526.66
472.51	3612.98
472.882	3687.56
473.253	3667.22
473.625	3717.39
473.997	3811.62
474.369	3835.35
474.74	3892.52
475.112	3947.66
475.484	3997.83
475.855	4091.84
476.227	4100.2
476.598	4204.61
476.97	4278.96
477.341	4366.86
477.713	4424.26
478.084	4499.97
478.455	4622
478.827	4625.84
479.198	4794.65
479.569	4762.56
479.94	4910.58
480.311	4961.2
480.682	5111.7
481.053	5199.16
481.424	5278.93
481.795	5358.47
482.166	5449.09
482.537	5525.7
482.908	5628.98
483.279	5747.62
483.65	5828.29
484.021	5970.89
484.391	6046.14
484.762	6144.22
485.133	6195.06
485.503	6284.55
485.874	6473.02
486.244	6539.01
486.615	6670.3
486.985	6746.01
487.356	6899.68
487.726	6957.98
488.097	7183.51
488.467	7278.2
488.837	7470.28
489.207	7562.94
489.578	7738.53
489.948	7789.6
490.318	7966.32
490.688	8064.39
491.058	8244.95
491.428	8383.25
491.798	8520.65
492.168	8719.06
492.538	8749.35
492.908	8936.69
493.278	9118.83
493.648	9204.48
494.017	9314.3
494.387	9485.37
494.757	9603.11
495.126	9748.87
495.496	9903.44
495.866	10041.97
496.235	10238.8
496.605	10328.51
496.974	10412.13
497.344	10672.01
497.713	10842.85
498.082	10858.22
498.452	11070.64
498.821	11152.22
499.19	11368.94
499.559	11491.42
499.928	11611.19
500.298	11667.46
500.667	12005.53
501.036	12071.29
501.405	12149.93
501.774	12324.62
502.143	12483.49
502.512	12660.88
502.88	12841.22
503.249	12817.94
503.618	13076.24
503.987	13134.09
504.356	13353.74
504.724	13557.36
505.093	13710.35
505.462	13827.63
505.83	13961.64
506.199	14171.8
506.567	14377.45
506.936	14464.45
507.304	14612.47
507.672	14765.23
508.041	14840.03
508.409	15149.63
508.777	15236.41
509.145	15469.85
509.514	15428.04
509.882	15676.85
510.25	15760.46
510.618	15869.16
510.986	16020.34
511.354	16172.65
511.722	16329.03
512.09	16614.68
512.458	16559.31
512.826	16771.73
513.193	16905.29
513.561	17007.66
513.929	17195.68
514.297	17348.67
514.664	17514.31
515.032	17634.08
515.4	17732.84
515.767	17820.52
516.135	18046.95
516.502	17937.35
516.869	18229.77
517.237	18345.03
517.604	18242.2
517.972	18614.4
518.339	18764.68
518.706	18821.17
519.073	18964.44
519.44	18991.56
519.808	19289.18
520.175	19289.41
520.542	19559.46
520.909	19562.62
521.276	19767.59
521.643	19909.05
522.009	20079.44
522.376	20185.66
522.743	20227.69
523.11	20429.72
523.477	20758.75
523.843	20722.36
524.21	21014.33
524.577	21041.45
524.943	21153.99
525.31	21270.15
525.676	21582.91
526.043	21633.3
526.409	21732.96
526.776	21939.28
527.142	21909.68
527.508	22064.02
527.874	22235.55
528.241	22328.42
528.607	22397.8
528.973	22585.14
529.339	22588.76
529.705	22787.4
530.071	22932.93
530.437	23048.41
530.803	23040.72
531.169	23156.43
531.535	23146.93
531.901	23358.68
532.267	23416.53
532.632	23506.02
532.998	23633.7
533.364	23718.67
533.73	23803.19
534.095	23953.47
534.461	23902.17
534.826	24031.66
535.192	23970.19
535.557	24235.94
535.923	24135.61
536.288	24241.37
536.653	24328.15
537.019	24330.41
537.384	24279.11
537.749	24336.96
538.114	24352.55
538.479	24339.22
538.845	24444.75
539.21	24423.06
539.575	24468.48
539.94	24454.7
540.305	24578.53
540.67	24540.12
541.034	24568.59
541.399	24590.74
541.764	24680.23
542.129	24666.22
542.494	24729.27
542.858	24732.2
543.223	24617.63
543.587	24827.57
543.952	24763.16
544.316	24735.14
544.681	24751.86
545.045	24894.68
545.41	24967.68
545.774	24786.44
546.138	24801.13
546.503	24842.71
546.867	24924.29
547.231	25045.19
547.595	24996.83
547.959	25018.52
548.324	25008.13
548.688	25059.43
549.052	24957.51
549.416	24948.92
549.779	24952.08
550.143	24849.49
550.507	25152.53
550.871	25103.49
551.235	25056.26
551.599	25186.88
551.962	25128.58
552.326	25187.11
552.689	25136.26
553.053	24966.09
553.417	25226.65
553.78	25380.32
554.143	25310.49
554.507	25365.41
554.87	25419.87
555.234	25486.31
555.597	25296.03
555.96	25552.97
556.323	25570.82
556.686	25629.81
557.05	25642.69
557.413	25667.55
557.776	25719.75
558.139	25726.75
558.502	25859.4
558.865	25753.87
559.228	26015.78
559.59	25898.95
559.953	26156.35
560.316	26421.2
560.679	26301.65
561.041	26264.82
561.404	26373.74
561.767	26580.06
562.129	26453.97
562.492	26694.86
562.854	26641.31
563.217	26646.95
563.579	26713.17
563.941	26928.3
564.304	27004.46
564.666	27157.45
565.028	27073.38
565.39	27299.59
565.753	27405.35
566.115	27377.78
566.477	27485.12
566.839	27514.5
567.201	27802.86
567.563	27566.03
567.925	27907.71
568.287	27841.95
568.648	27881.27
569.01	27999.24
569.372	28273.13
569.734	28237.87
570.095	28442.39
570.457	28392.67
570.819	28416.17
571.18	28439
571.542	28667.47
571.903	28741.36
572.265	28851.64
572.626	28796.95
572.987	28783.4
573.349	28904.97
573.71	29018.19
574.071	29064.74
574.432	29276.72
574.794	29376.6
575.155	29315.13
575.516	29335.25
575.877	29245.3
576.238	29297.96
576.599	29518.52
576.96	29561
577.32	29441.91
577.681	29484.85
578.042	29494.56
578.403	29541.57
578.763	29512.64
579.124	29509.93
579.485	29582.02
579.845	29743.14
580.206	29690.94
580.566	29766.19
580.927	29684.61
581.287	29681.45
581.648	29608.46
582.008	29599.42
582.368	29721
582.728	29736.14
583.089	29731.62
583.449	29724.16
583.809	29756.7
584.169	29793.09
584.529	29644.16
584.889	29922.12
585.249	29757.16
585.609	29604.84
585.969	29752.86
586.329	29651.85
586.688	29711.05
587.048	29643.03
587.408	29597.61
587.768	29548.12
588.127	29552.42
588.487	29549.25
588.846	29691.17
589.206	29366.43
589.565	29341.12
589.925	29585.41
590.284	29408.69
590.643	29321.01
591.003	29359.88
591.362	29517.84
591.721	29592.19
592.08	29398.52
592.44	29558.06
592.799	29277.39
593.158	29201.24
593.517	29325.3
593.876	29290.73
594.235	29304.96
594.593	29210.5
594.952	29267.9
595.311	29164.4
595.67	29290.28
596.029	29446.66
596.387	29405.3
596.746	29438.52
597.104	29182.26
597.463	29182.71
597.822	29356.49
598.18	29306.09
598.538	29283.5
598.897	29418.41
599.255	29152.43
599.613	29407.56
599.972	29241.46
600.33	29447.33
600.688	29324.17
601.046	29308.81
601.404	29494.79
601.762	29348.13
602.12	29378.86
602.478	29353.32
602.836	29355.36
603.194	29162.14
603.552	29401.46
603.91	29280.78
604.268	29430.61
604.625	29401.68
604.983	29560.78
605.341	29518.07
605.698	29504.96
606.056	29612.75
606.413	29479.87
606.771	29644.39
607.128	29556.26
607.485	29570.49
607.843	29482.36
608.2	29562.36
608.557	29725.97
608.914	29734.33
609.272	29874.44
609.629	29890.71
609.986	29906.98
610.343	29846.42
610.7	30074.66
611.057	29931.61
611.414	29838.96
611.771	30001.89
612.127	30042.12
612.484	30016.13
612.841	30229.46
613.198	30025.17
613.554	30093.42
613.911	30223.36
614.267	30283.7
614.624	30272.4
614.98	30414.09
615.337	30497.02
615.693	30513.75
616.05	30406.18
616.406	30523.91
616.762	30565.72
617.118	30558.04
617.475	30402.11
617.831	30627.42
618.187	30620.64
618.543	30684.36
618.899	30859.5
619.255	30737.47
619.611	30805.49
619.967	30997.35
620.323	31007.52
620.678	30860.86
621.034	30985.6
621.39	30810.46
621.746	30912.38
622.101	31233.5
622.457	30918.93
622.812	31158.93
623.168	31111.02
623.523	30966.39
623.879	31085.93
624.234	30992.83
624.589	31054.97
624.945	31140.85
625.3	31285.25
625.655	31270.79
626.01	31271.24
626.365	31167.29
626.72	31155.99
627.075	31174.97
627.43	31195.08
627.785	31118.25
628.14	30987.86
628.495	31175.88
628.85	31057.23
629.205	31109.66
629.559	31193.73
629.914	31018.59
630.269	30953.73
630.623	30947.63
630.978	30789.22
631.332	30916.22
631.687	30936.33
632.041	30835.55
632.396	30851.59
632.75	30759.16
633.104	30950.12
633.459	30674.65
633.813	30647.53
634.167	30621.54
634.521	30702.89
634.875	30696.11
635.229	30639.39
635.583	30386.74
635.937	30471.03
636.291	30367.31
636.645	30422.67
636.999	30292.73
637.352	30526.4
637.706	30208.67
638.06	30354.43
638.413	30165.28
638.767	30078.05
639.121	30081.44
639.474	29991.95
639.828	30049.58
640.181	29983.82
640.534	30108.56
640.888	29893.65
641.241	29748.12
641.594	29874.89
641.947	29826.53
642.301	29769.36
642.654	29790.15
643.007	29706.99
643.36	29817.27
643.713	29733.43
644.066	29784.05
644.419	29388.8
644.771	29248.69
645.124	28997.63
645.477	29013.22
645.83	28936.39
646.182	28982.71
646.535	28879.21
646.888	28916.73
647.24	28948.59
647.593	29002.15
647.945	28986.78
648.298	28692.1
648.65	28590.41
649.002	28598.77
649.355	28438.55
649.707	28261.6
650.059	28280.36
650.411	28762.83
650.763	28857.74
651.115	29276.49
651.467	29185.42
651.819	29242.37
652.171	29128.7
652.523	29031.3
652.875	29003.05
653.227	29086.66
653.578	29222.25
653.93	29178.87
654.282	29085.08
654.633	29053.9
654.985	29180.9
655.337	29071.3
655.688	29126.44
656.039	29172.76
656.391	28901.36
656.742	28960.34
657.094	28958.31
657.445	29000.11
657.796	29071.52
658.147	28916.5
658.498	28994.46
658.849	29075.82
659.2	29048.25
659.551	28958.76
659.902	29207.79
660.253	28905.88
660.604	28976.16
660.955	28987.68
661.306	29076.95
661.656	29112.43
662.007	29077.4
662.358	29002.82
662.708	29030.85
663.059	29048.02
663.409	28907.46
663.76	28998.53
664.11	29128.25
664.461	29181.8
664.811	29100.45
665.161	29159.21
665.511	29078.08
665.862	29064.29
666.212	29096.83
666.562	29152.43
666.912	29104.97
667.262	29097.51
667.612	29064.97
667.962	29048.25
668.312	28987.01
668.662	29214.12
669.011	29136.61
669.361	29067.46
669.711	29169.6
670.06	28909.95
670.41	28970.74
670.76	28980.9
671.109	29066.78
671.459	29023.16
671.808	29047.57
672.157	29127.34
672.507	28841.02
672.856	28844.64
673.205	28915.14
673.554	28964.63
673.904	28837.18
674.253	29164.18
674.602	28853.9
674.951	28486.68
675.3	28362.39
675.649	28789.95
675.998	28703.62
676.346	28885.54
676.695	28958.08
677.044	28754.47
677.393	28782.27
677.741	28705.43
678.09	28719.67
678.438	28494.36
678.787	28714.24
679.135	28611.2
679.484	28441.48
679.832	28525.32
680.181	28578.2
680.529	28487.81
680.877	28321.71
681.225	28306.35
681.573	28489.84
681.922	28348.6
682.27	28317.87
682.618	28362.84
682.966	28160.59
683.314	28234.94
683.661	28081.49
684.009	28140.47
684.357	28025
684.705	27847.15
685.053	27929.86
685.4	27711.79
685.748	27733.93
686.095	27768.28
686.443	27575.07
686.79	27570.77
687.138	27439.25
687.485	27415.75
687.832	27322.64
688.18	27399.25
688.527	27266.37
688.874	27263.66
689.221	27221.18
689.568	27093.27
689.915	26968.08
690.262	26969.66
690.609	26890.56
690.956	26744.81
691.303	26794.07
691.65	26505.26
691.997	26611.93
692.344	26499.39
692.69	26390.69
693.037	26297.13
693.383	26130.13
693.73	26119.28
694.077	26010.36
694.423	26043.58
694.769	25840.65
695.116	25782.57
695.462	25709.58
695.808	25566.98
696.155	25580.09
696.501	25412.41
696.847	25589.36
697.193	25348.91
697.539	25422.58
697.885	25190.5
698.231	25119.99
698.577	25104.85
698.923	25076.15
699.269	24951.41
699.614	24876.15
699.96	24678.64
700.306	24558.65
700.651	24472.32
700.997	24456.73
701.342	24407.24
701.688	24333.57
702.033	24203.4
702.379	24157.3
702.724	24082.95
703.069	23984.88
703.415	23732.46
703.76	23737.2
704.105	23713.92
704.45	23620.82
704.795	23636.19
705.14	23476.64
705.485	23521.39
705.83	23275.52
706.175	23440.26
706.52	23255.86
706.865	23098.12
707.209	23131.57
707.554	23147.16
707.899	23013.15
708.243	22929.76
708.588	22945.36
708.932	22770.45
709.277	22826.49
709.621	22656.78
709.966	22585.14
710.31	22530.23
710.654	22461.53
710.998	22394.41
711.342	22538.14
711.687	22365.26
712.031	22353.28
712.375	22312.83
712.719	22262.44
713.063	22185.15
713.407	22323.9
713.75	22167.75
714.094	22130.69
714.438	22028.55
714.782	22050.47
715.125	21870.36
715.469	21970.02
715.812	21816.57
716.156	21778.61
716.499	21822.67
716.843	21787.2
717.186	21696.35
717.53	21828.55
717.873	21803.01
718.216	21734.99
718.559	21637.37
718.902	21397.15
719.246	21590.82
719.589	21549.24
719.932	21371.84
720.275	21349.24
720.617	21397.38
720.96	21320.32
721.303	21454.1
721.646	21369.58
721.989	21350.14
722.331	21287.32
722.674	21306.98
723.016	21259.3
723.359	21206.87
723.701	21289.36
724.044	21147.89
724.386	21128.46
724.729	21205.29
725.071	21282.12
725.413	21195.35
725.755	21160.77
726.097	20972.53
726.439	20957.16
726.782	21070.6
727.124	21103.6
727.465	21029.48
727.807	20937.5
728.149	21045.75
728.491	20877.61
728.833	20991.06
729.175	21003.04
729.516	21034.9
729.858	20944.96
730.199	21026.09
730.541	21011.85
730.882	20954
731.224	20966.2
731.565	20857.5
731.906	20969.14
732.248	21015.46
732.589	20873.55
732.93	20939.99
733.271	20915.81
733.612	20959.42
733.953	20998.29
734.294	20830.84
734.635	20899.76
734.976	20964.84
735.317	21044.62
735.658	20975.69
735.999	20954.45
736.339	20984.05
736.68	21072.19
737.021	20998.29
737.361	20975.24
737.702	21160.55
738.042	21054.79
738.383	21186.76
738.723	21184.73
739.063	21093.43
739.404	21218.17
739.744	21254.55
740.084	21236.7
740.424	21239.87
740.764	21373.2
741.104	21420.43
741.444	21373.87
741.784	21294.33
742.124	21506.75
742.464	21461.1
742.804	21489.58
743.143	21520.76
743.483	21609.8
743.823	21564.15
744.162	21665.62
744.502	21773.86
744.841	21714.88
745.181	21850.02
745.52	21912.62
745.86	22001.65
746.199	22056.11
746.538	22160.97
746.877	22223.34
747.216	22221.99
747.556	22386.28
747.895	22436.9
748.234	22542.88
748.573	22554.18
748.911	22703.78
749.25	22798.69
749.589	22818.81
749.928	22886.6
750.267	23022.64
750.605	23132.47
750.944	23228.29
751.283	23319.13
751.621	23523.2
751.96	23489.98
752.298	23694.94
752.636	23835.73
752.975	23817.65
753.313	23979.23
753.651	24115.5
753.989	24191.2
754.327	24310.97
754.666	24298.54
755.004	24420.35
755.342	24591.19
755.679	24683.16
756.017	24759.77
756.355	25066.21
756.693	25038.86
757.031	25223.04
757.368	25267.33
757.706	25357.27
758.044	25434.33
758.381	25565.85
758.719	25607.43
759.056	25701.22
759.394	25798.62
759.731	25825.51
760.068	25864.83
760.405	26022.79
760.743	26185.05
761.08	26210.81
761.417	26224.14
761.754	26321.99
762.091	26364.93
762.428	26370.8
762.765	26519.95
763.102	26608.99
763.438	26631.14
763.775	26693.96
764.112	26799.27
764.449	26867.06
764.785	26844.92
765.122	26848.31
765.458	26785.48
765.795	26838.81
766.131	26974.4
766.467	27126.26
766.804	26877.46
767.14	26934.18
767.476	26921.75
767.812	26995.87
768.148	27124.46
768.485	27018.24
768.821	26894.86
769.157	26962.43
769.492	26934.86
769.828	26961.75
770.164	26839.04
770.5	26869.77
770.836	26843.11
771.171	26838.14
771.507	26798.36
771.842	26679.5
772.178	26638.37
772.513	26681.08
772.849	26603.79
773.184	26593.4
773.519	26564.25
773.855	26638.37
774.19	26550.01
774.525	26510.46
774.86	26391.82
775.195	26441.31
775.53	26312.95
775.865	26270.69
776.2	26105.27
776.535	25972.85
776.87	25979.18
777.205	25975.79
777.539	25861.44
777.874	25963.13
778.209	25732.4
778.543	25786.86
778.878	25780.08
779.212	25752.06
779.547	25484.5
779.881	25499.64
780.215	25351.85
780.55	25461.68
780.884	25292.19
781.218	25203.15
781.552	25341.68
781.886	25089.03
782.22	25149.37
782.554	24943.27
782.888	24704.41
783.222	24771.75
783.556	24783.73
783.889	24694.24
784.223	24401.59
784.557	24494.47
784.89	24669.38
785.224	24453.34
785.557	24277.53
785.891	24200.92
786.224	24251.09
786.558	24226.45
786.891	24046.35
787.224	23855.84
787.557	23862.62
787.891	23922.73
788.224	23778.33
788.557	23731.33
788.89	23571.1
789.223	23603.19
789.556	23396.42
789.888	23409.75
790.221	23296.53
790.554	23194.16
790.887	23158.23
791.219	23105.58
791.552	23038.01
791.884	22915.98
792.217	22959.37
792.549	22918.01
792.882	22649.32
793.214	22552.83
793.546	22652.71
793.879	22459.04
794.211	22364.13
794.543	22485.48
794.875	22370.01
795.207	22368.42
795.539	22158.26
795.871	22138.37
796.203	22091.14
796.535	22003.69
796.867	22006.17
797.198	21757.14
797.53	21884.82
797.862	21733.86
798.193	21729.8
798.525	21563.02
798.856	21770.47
799.188	21390.6
799.519	21386.75
799.85	21349.69
800.182	21282.12
800.513	21393.99
800.844	21072.86
801.175	21124.84
801.506	21219.53
801.837	21123.94
802.168	21067.89
802.499	21045.07
802.83	20832.87
803.161	20872.87
803.491	20828.58
803.822	20771.4
804.153	20679.88
804.483	20577.06
804.814	20470.39
805.145	20576.38
805.475	20548.36
805.805	20534.12
806.136	20444.63
806.466	20372.09
806.796	20280.57
807.126	20192.89
807.457	20065.88
807.787	20073.57
808.117	20025.43
808.447	19965.1
808.777	20108.37
809.107	19933.91
809.436	19856.62
809.766	19897.75
810.096	19854.36
810.426	19737.53
810.755	19823.18
811.085	19715.16
811.414	19723.75
811.744	19642.17
812.073	19556.97
812.403	19496.41
812.732	19420.25
813.061	19549.74
813.39	19259.8
813.719	19387.94
814.049	19320.14
814.378	19346.36
814.707	19112.46
815.036	19326.02
815.365	19104.78
815.693	19017.78
816.022	19086.48
816.351	19005.8
816.68	18887.61
817.008	18931
817.337	18781.85
817.665	18754.96
817.994	18721.29
818.322	18747.95
818.651	18722.87
818.979	18685.36
819.307	18665.7
819.636	18670.22
819.964	18578.92
820.292	18587.96
820.62	18541.63
820.948	18660.05
821.276	18763.32
821.604	18584.12
821.932	18686.26
822.259	18628.18
822.587	18496.89
822.915	18660.05
823.243	18606.49
823.57	18451.01
823.898	18673.38
824.225	18564.91
824.553	18482.42
824.88	18616.21
825.207	18607.39
825.535	18592.03
825.862	18670.22
826.189	18642.87
826.516	18743.43
826.843	18723.77
827.17	18708.86
827.497	18709.99
827.824	18644.23
828.151	18710.67
828.478	18603.32
828.805	18764.22
829.131	18635.41
829.458	18650.78
829.785	18455.08
830.111	18666.15
830.438	18686.94
830.764	18658.69
831.09	18607.62
831.417	18561.74
831.743	18676.77
832.069	18627.05
832.395	18515.19
832.722	18615.75
833.048	18488.75
833.374	18678.12
833.7	18540.05
834.026	18621.18
834.351	18537.79
834.677	18573.95
835.003	18629.09
835.329	18526.49
835.654	18488.98
835.98	18433.16
836.306	18595.42
836.631	18401.3
836.956	18511.12
837.282	18546.38
837.607	18373.73
837.932	18397.45
838.258	18386.15
838.583	18233.16
838.908	18289.66
839.233	18285.14
839.558	18204.24
839.883	18116.56
840.208	18017.13
840.533	18100.51
840.858	18131.7
841.182	18028.88
841.507	18053.96
841.832	17895.55
842.156	17924.7
842.481	17940.29
842.805	17855.32
843.13	17815.32
843.454	17888.09
843.778	17773.97
844.103	17752.5
844.427	17656.23
844.751	17782.1
845.075	17627.76
845.399	17581.2
845.723	17498.27
846.047	17568.1
846.371	17478.61
846.695	17443.58
847.019	17311.61
847.343	17174.21
847.666	17161.33
847.99	17057.38
848.313	17080.65
848.637	16932.41
848.96	16934.44
849.284	16863.94
849.607	16857.61
849.931	16756.14
850.254	16690.15
850.577	16587.78
850.9	16440.22
851.223	16602.02
851.546	16425.3
851.869	16301.01
852.192	16465.08
852.515	16263.05
852.838	16188.02
853.161	16221.92
853.483	16091.75
853.806	16136.5
854.129	16047.23
854.451	15983.96
854.774	15903.51
855.096	15785.55
855.419	15753.23
855.741	15701.03
856.063	15722.04
856.385	15646.79
856.708	15611.54
857.03	15565.44
857.352	15469.17
857.674	15492.45
857.996	15470.75
858.318	15188.27
858.64	15275.28
858.961	15266.91
859.283	15203.64
859.605	15113.7
859.926	15158.9
860.248	15095.62
860.57	14997.09
860.891	15084.32
861.212	14989.18
861.534	14954.38
861.855	14904.66
862.176	14881.84
862.498	14865.34
862.819	14838
863.14	14761.39
863.461	14748.28
863.782	14712.81
864.103	14672.81
864.424	14631.9
864.745	14655.63
865.065	14606.82
865.386	14578.8
865.707	14558.91
866.027	14578.12
866.348	14521.62
866.668	14480.72
866.989	14400.05
867.309	14378.8
867.63	14465.13
867.95	14479.59
868.27	14300.84
868.59	14354.17
868.91	14306.26
869.23	14290.9
869.55	14143.33
869.87	14330.67
870.19	14184.23
870.51	14182.65
870.83	14159.6
871.15	14136.1
871.469	14076.66
871.789	14100.17
872.109	14089.09
872.428	14020.17
872.748	14094.52
873.067	14041.41
873.386	14054.52
873.706	13951.24
874.025	13956.67
874.344	13963.45
874.663	13959.6
874.982	13858.14
875.301	13883.22
875.62	13779.27
875.939	13784.24
876.258	13739.72
876.577	13781.98
876.896	13729.78
877.214	13777.69
877.533	13799.83
877.852	13810.46
878.17	13701.98
878.489	13740.85
878.807	13699.72
879.125	13698.14
879.444	13640.29
879.762	13521.65
880.08	13538.37
880.398	13465.38
880.716	13494.31
881.034	13365.72
881.352	13520.75
881.67	13355.33
881.988	13460.86
882.306	13318.72
882.624	13354.65
882.941	13320.07
883.259	13267.19
883.577	13260.64
883.894	13351.26
884.212	13190.13
884.529	13209.79
884.846	13094.99
885.164	13011.83
885.481	13038.95
885.798	13026.52
886.115	12968.44
886.432	13006.86
886.75	12891.38
887.067	12958.05
887.383	12844.83
887.7	12872.18
888.017	12833.98
888.334	12823.36
888.651	12806.64
888.967	12728
889.284	12716.02
889.6	12598.74
889.917	12692.75
890.233	12747.21
890.55	12637.83
890.866	12569.13
891.182	12534.56
891.498	12472.19
891.815	12401.91
892.131	12346.54
892.447	12283.04
892.763	12338.4
893.079	12224.74
893.395	12226.09
893.71	12292.53
894.026	12237.39
894.342	12185.19
894.657	12088.47
894.973	12130.05
895.289	12077.17
895.604	12065.19
895.92	11922.14
896.235	11881.92
896.55	11899.32
896.865	11857.29
897.181	11886.21
897.496	11843.05
897.811	11716.95
898.126	11750.85
898.441	11609.38
898.756	11610.97
899.071	11572.55
899.386	11616.62
899.7	11431.76
900.015	11383.4
900.33	11333.91
900.644	11287.13
900.959	11281.03
901.273	11229.28
901.588	11156.97
901.902	11220.69
902.216	11161.71
902.531	11117.19
902.845	11025.67
903.159	10994.48
903.473	10979.57
903.787	10922.85
904.101	10898.44
904.415	10890.76
904.729	10846.92
905.042	10715.85
905.356	10729.63
905.67	10703.19
905.984	10725.34
906.297	10682.18
906.611	10610.09
906.924	10537.32
907.237	10522.41
907.551	10531.67
907.864	10453.26
908.177	10449.19
908.491	10381.62
908.804	10328.97
909.117	10254.84
909.43	10232.92
909.743	10118.35
910.056	10170.1
910.368	10087.62
910.681	10072.7
910.994	10126.94
911.307	9977.34
911.619	9844.23
911.932	9885.81
912.244	9877.45
912.557	9775.99
912.869	9743.44
913.181	9690.56
913.494	9748.87
913.806	9611.92
914.118	9675.42
914.43	9491.02
914.742	9571.25
915.054	9492.6
915.366	9450.57
915.678	9425.26
915.99	9396.33
916.302	9357.47
916.613	9264.81
916.925	9243.8
917.236	9297.13
917.548	9187.98
917.859	9262.78
918.171	9069.56
918.482	9061.65
918.794	9088.32
919.105	9009.45
919.416	8953.41
919.727	8959.74
920.038	8870.02
920.349	8878.83
920.66	8821.89
920.971	8849.23
921.282	8789.57
921.593	8740.53
921.903	8646.75
922.214	8607.43
922.525	8565.17
922.835	8614.43
923.146	8529.01
923.456	8544.83
923.767	8400.88
924.077	8452.86
924.387	8431.39
924.697	8383.93
925.008	8351.62
925.318	8309.58
925.628	8292.64
925.938	8277.27
926.248	8164.05
926.558	8128.35
926.867	8137.38
927.177	8032.3
927.487	8037.73
927.796	7989.37
928.106	8050.16
928.416	7951.85
928.725	7936.03
929.034	7850.61
929.344	7884.51
929.653	7824.62
929.962	7811.07
930.271	7765.64
930.581	7737.85
930.89	7632.54
931.199	7638.19
931.508	7546.67
931.817	7570.39
932.125	7606.78
932.434	7489.04
932.743	7454.47
933.051	7435.26
933.36	7441.36
933.669	7352.32
933.977	7361.36
934.286	7292.21
934.594	7323.4
934.902	7322.49
935.21	7251.31
935.519	7203.85
935.827	7142.61
936.135	7112.1
936.443	7075.27
936.751	7072.1
937.059	7128.37
937.367	7055.61
937.674	7051.99
937.982	7002.27
938.29	6984.19
938.597	6948.26
938.905	6892.22
939.213	6812.67
939.52	6825.78
939.827	6846.57
940.135	6757.08
940.442	6721.6
940.749	6736.74
941.056	6734.26
941.363	6685.9
941.67	6636.18
941.977	6550.08
942.284	6548.73
942.591	6562.06
942.898	6565.22
943.205	6487.26
943.511	6461.72
943.818	6463.98
944.125	6431.22
944.431	6397.77
944.738	6369.52
945.044	6338.34
945.35	6333.14
945.657	6289.75
945.963	6258.11
946.269	6195.06
946.575	6209.07
946.881	6168.85
947.187	6148.74
947.493	6083.88
947.799	6102.18
948.105	6050.43
948.41	6001.4
948.716	6007.27
949.022	5987.84
949.327	6010.66
949.633	5953.49
949.938	5910.32
950.244	5919.36
950.549	5805.02
950.854	5796.88
951.16	5785.81
951.465	5703.78
951.77	5722.53
952.075	5708.3
952.38	5703.55
952.685	5685.02
952.99	5643.44
953.294	5614.06
953.599	5573.38
953.904	5553.95
954.209	5518.47
954.513	5511.01
954.818	5502.43
955.122	5431.92
955.426	5469.66
955.731	5414.74
956.035	5373.16
956.339	5390.11
956.643	5413.39
956.948	5313.28
957.252	5300.4
957.556	5305.59
957.86	5231.25
958.163	5219.72
958.467	5246.61
958.771	5213.17
959.075	5202.77
959.378	5142.89
959.682	5145.37
959.985	5096.33
960.289	5020.4
960.592	5080.97
960.896	5052.27
961.199	5001.87
961.502	5000.07
961.805	4991.7
962.108	4906.28
962.411	4919.16
962.714	4870.8
963.017	4896.57
963.32	4888.43
963.623	4851.14
963.926	4796.91
964.228	4824.03
964.531	4819.51
964.833	4761.2
965.136	4761.2
965.438	4676.91
965.741	4746.74
966.043	4725.95
966.345	4665.16
966.648	4650.92
966.95	4610.92
967.252	4631.49
967.554	4579.06
967.856	4576.57
968.158	4520.53
968.46	4553.98
968.761	4488.67
969.063	4519.17
969.365	4462.45
969.666	4435.79
969.968	4398.05
970.269	4419.06
970.571	4386.52
970.872	4350.82
971.174	4337.03
971.475	4313.08
971.776	4348.78
972.077	4309.69
972.378	4268.33
972.679	4298.16
972.98	4259.75
973.281	4236.24
973.582	4240.54
973.883	4187.66
974.183	4196.92
974.484	4144.95
974.785	4137.49
975.085	4148.79
975.386	4094.55
975.686	4102.01
975.986	4056.14
976.287	4073.08
976.587	4012.52
976.887	4003.93
977.187	3978.17
977.487	4022.69
977.787	3945.4
978.087	3907.89
978.387	3930.04
978.687	3871.28
978.987	3901.34
979.286	3876.48
979.586	3873.99
979.885	3859.76
980.185	3780.89
980.484	3780.89
980.784	3771.17
981.083	3745.64
981.382	3722.81
981.682	3699.99
981.981	3750.16
982.28	3693.66
982.579	3687.11
982.878	3666.99
983.177	3635.13
983.475	3654.79
983.774	3618.86
984.073	3607.79
984.372	3590.16
984.67	3549.03
984.969	3564.62
985.267	3499.54
985.566	3520.11
985.864	3484.4
986.162	3534.79
986.461	3469.26
986.759	3467.68
987.057	3410.96
987.355	3376.61
987.653	3410.05
987.951	3375.48
988.249	3368.7
988.547	3338.64
988.844	3322.14
989.142	3309.94
989.44	3300.22
989.737	3293.67
990.035	3281.92
990.332	3259.77
990.63	3259.32
990.927	3231.07
991.224	3244.86
991.521	3203.28
991.819	3177.52
992.116	3168.7
992.413	3161.7
992.71	3177.29
993.006	3118.76
993.303	3099.55
993.6	3088.25
993.897	3034.47
994.193	3022.04
994.49	3057.29
994.787	3041.47
995.083	2989.27
995.379	2992.89
995.676	2987.92
995.972	3018.65
996.268	2921.48
996.565	2924.19
996.861	2912.66
997.157	2921.93
997.453	2899.56
997.749	2885.32
998.044	2846.45
998.34	2821.82
998.636	2849.84
998.932	2847.81
999.227	2785.66
999.523	2791.54
999.818	2773.46
1000.114	2761.03
1000.409	2729.17
1000.704	2708.83
1001	2705.66
1001.295	2711.99
1001.59	2714.25
1001.885	2684.87
1002.18	2658.21
1002.475	2663.4
1002.77	2633.57
1003.065	2625.44
1003.359	2592.22
1003.654	2571.66
1003.949	2572.33
1004.243	2568.72
1004.538	2536.4
1004.832	2524.65
1005.127	2499.57
1005.421	2517.87
1005.715	2496.18
1006.009	2463.64
1006.304	2455.27
1006.598	2435.84
1006.892	2447.82
1007.186	2401.72
1007.48	2437.2
1007.773	2384.09
1008.067	2381.83
1008.361	2331.66
1008.655	2347.48
1008.948	2323.75
1009.242	2309.29
1009.535	2273.58
1009.829	2266.8
1010.122	2290.98
1010.415	2272.68
1010.708	2241.72
1011.001	2229.52
1011.295	2231.55
1011.588	2187.94
1011.881	2197.43
1012.173	2188.84
1012.466	2163.76
1012.759	2192.23
1013.052	2174.15
1013.344	2162.63
1013.637	2123.08
1013.93	2126.47
1014.222	2092.57
1014.514	2105.23
1014.807	2049.86
1015.099	2077.66
1015.391	2054.38
1015.683	2041.27
1015.976	2023.65
1016.268	2041.95
1016.56	1991.11
1016.851	1981.84
1017.143	1965.34
1017.435	1965.57
1017.727	1957.89
1018.018	1949.3
1018.31	1964.21
1018.602	1920.15
1018.893	1913.37
1019.185	1912.92
1019.476	1896.19
1019.767	1856.87
1020.058	1864.78
1020.35	1839.25
1020.641	1806.03
1020.932	1810.32
1021.223	1814.84
1021.514	1774.39
1021.804	1740.72
1022.095	1767.61
1022.386	1744.78
1022.677	1757.89
1022.967	1697.55
1023.258	1718.57
1023.548	1736.2
1023.839	1715.86
1024.129	1711.57
1024.419	1683.32
1024.709	1652.81
1025	1644.9
1025.29	1646.26
1025.58	1639.93
1025.87	1617.1
1026.16	1611.68
1026.449	1602.42
1026.739	1586.82
1027.029	1564.45
1027.319	1566.26
1027.608	1554.73
1027.898	1577.33
1028.187	1516.32
1028.477	1522.42
1028.766	1531.91
1029.055	1497.33
1029.344	1482.42
1029.634	1456.2
1029.923	1470.67
1030.212	1457.79
1030.501	1411.23
1030.79	1433.61
1031.078	1443.78
1031.367	1399.48
1031.656	1392.93
1031.945	1432.02
1032.233	1392.25
1032.522	1385.47
1032.81	1385.25
1033.099	1382.99
1033.387	1370.56
1033.675	1370.33
1033.963	1340.95
1034.251	1324.91
1034.54	1314.97
1034.828	1305.47
1035.116	1299.6
1035.403	1297.56
1035.691	1263.89
1035.979	1286.49
1036.267	1256.89
1036.554	1264.35
1036.842	1221.86
1037.129	1244.68
1037.417	1265.48
1037.704	1235.65
1037.992	1220.73
1038.279	1212.6
1038.566	1175.08
1038.853	1175.08
1039.14	1175.08
