Data from 7737_FLMS001491_005.txt Node
Date: Thu Apr 19 15:41:09 BST 2018
User: hsy
Spectrometer: FLMS00149
Trigger mode: 0
Integration Time (sec): 1.000000E-2
Scans to average: 10
Electric dark correction enabled: true
Nonlinearity correction enabled: false
Boxcar width: 0
XAxis mode: Wavelengths
Number of Pixels in Spectrum: 2048
>>>>>Begin Spectral Data<<<<<
341.393	-16.75
341.776	-16.75
342.16	-16.75
342.543	-59.24
342.927	-58.33
343.31	-65.34
343.693	-77.09
344.077	-72.34
344.46	-28.28
344.843	-54.94
345.226	-39.8
345.61	-37.32
345.993	-28.95
346.376	7.2
346.759	8.11
347.142	21.67
347.525	57.15
347.908	39.29
348.291	81.55
348.674	90.82
349.057	98.27
349.44	138.5
349.823	139.4
350.206	187.54
350.588	235.45
350.971	224.15
351.354	266.18
351.737	282.22
352.119	269.57
352.502	292.39
352.884	300.53
353.267	312.28
353.65	321.77
354.032	348.44
354.414	346.86
354.797	336.69
355.179	357.7
355.562	371.49
355.944	363.13
356.326	372.39
356.709	363.13
357.091	370.36
357.473	385.72
357.855	395.44
358.238	394.31
358.62	373.52
359.002	385.72
359.384	404.71
359.766	389.11
360.148	368.1
360.53	363.58
360.912	383.24
361.294	388.44
361.676	377.14
362.057	389.11
362.439	384.14
362.821	396.57
363.203	385.5
363.584	384.37
363.966	359.06
364.348	368.1
364.729	358.15
365.111	366.29
365.493	386.4
365.874	387.53
366.256	386.18
366.637	381.88
367.019	368.78
367.4	367.65
367.781	380.07
368.163	382.11
368.544	376.46
368.925	362.45
369.306	381.88
369.688	380.53
370.069	389.57
370.45	364.26
370.831	382.56
371.212	393.18
371.593	391.83
371.974	360.87
372.355	373.75
372.736	380.3
373.117	385.5
373.498	384.59
373.879	380.3
374.26	386.4
374.641	373.75
375.021	397.25
375.402	393.41
375.783	396.8
376.163	420.3
376.544	396.12
376.925	397.93
377.305	389.11
377.686	407.87
378.066	403.12
378.447	413.52
378.827	398.15
379.208	409.23
379.588	403.12
379.968	426.63
380.349	427.98
380.729	404.48
381.109	426.85
381.489	425.5
381.87	449.23
382.25	432.95
382.63	442.9
383.01	443.8
383.39	437.25
383.77	428.21
384.15	432.5
384.53	436.57
384.91	435.67
385.29	469.79
385.67	446.97
386.049	451.49
386.429	446.74
386.809	462.33
387.189	481.09
387.568	464.37
387.948	458.26
388.328	476.34
388.707	494.65
389.087	470.47
389.466	499.62
389.846	499.17
390.225	475.44
390.605	487.42
390.984	498.72
391.363	503.91
391.743	519.51
392.122	531.71
392.501	505.27
392.881	519.96
393.26	515.44
393.639	497.81
394.018	535.1
394.397	521.99
394.776	525.61
395.155	531.03
395.534	549.34
395.913	554.53
396.292	558.6
396.671	546.62
397.05	565.83
397.429	551.37
397.808	536.68
398.186	572.61
398.565	585.72
398.944	578.04
399.323	582.56
399.701	612.84
400.08	569
400.458	586.17
400.837	565.83
401.215	593.85
401.594	587.07
401.972	587.3
402.351	588.66
402.729	632.95
403.107	613.06
403.486	607.87
403.864	634.31
404.242	628.66
404.62	644.02
404.999	658.49
405.377	648.09
405.755	624.59
406.133	644.47
406.511	636.79
406.889	648.99
407.267	668.65
407.645	676.11
408.023	677.92
408.401	701.42
408.779	682.44
409.156	688.77
409.534	719.95
409.912	719.95
410.29	700.29
410.667	720.18
411.045	722.89
411.422	749.33
411.8	767.64
412.178	758.82
412.555	749.1
412.933	775.54
413.31	810.57
413.687	803.11
414.065	790.01
414.442	778.26
414.819	799.05
415.197	824.81
415.574	831.81
415.951	828.42
416.328	832.04
416.705	859.38
417.082	845.6
417.46	871.36
417.837	844.7
418.214	851.47
418.591	876.56
418.967	866.16
419.344	896.45
419.721	891.93
420.098	921.53
420.475	890.12
420.852	915.43
421.228	908.65
421.605	940.29
421.982	917.69
422.358	929.21
422.735	924.92
423.111	953.62
423.488	940.96
423.864	957.01
424.241	957.69
424.617	985.71
424.994	987.06
425.37	1001.08
425.746	1007.4
426.123	984.13
426.499	1019.61
426.875	1042.43
427.251	1036.1
427.627	1074.97
428.003	1061.19
428.379	1074.07
428.756	1095.99
429.132	1095.99
429.507	1113.84
429.883	1101.86
430.259	1116.78
430.635	1137.79
431.011	1170.11
431.387	1159.04
431.763	1229.32
432.138	1158.81
432.514	1195.87
432.89	1213.05
433.265	1239.49
433.641	1279.03
434.016	1262.76
434.392	1287.85
434.767	1299.37
435.143	1313.61
435.518	1324.68
435.894	1337.56
436.269	1337.56
436.644	1340.5
437.02	1362.87
437.395	1373.04
437.77	1384.79
438.145	1418.69
438.52	1435.41
438.895	1452.59
439.271	1425.92
439.646	1431.57
440.021	1486.71
440.395	1493.72
440.77	1446.04
441.145	1486.03
441.52	1510.67
441.895	1490.1
442.27	1509.54
442.645	1512.25
443.019	1551.57
443.394	1534.17
443.769	1554.06
444.143	1530.1
444.518	1557.9
444.892	1593.15
445.267	1567.39
445.641	1573.94
446.016	1570.55
446.39	1630.89
446.764	1654.62
447.139	1616.65
447.513	1653.71
447.887	1640.83
448.262	1648.52
448.636	1636.54
449.01	1680.38
449.384	1681.96
449.758	1695.97
450.132	1734.39
450.506	1720.15
450.88	1705.01
451.254	1752.24
451.628	1779.13
452.002	1803.99
452.376	1825.23
452.75	1809.42
453.123	1824.33
453.497	1891.67
453.871	1860.94
454.244	1944.33
454.618	1949.98
454.992	1957.66
455.365	1963.31
455.739	1994.27
456.112	2009.18
456.486	2045.79
456.859	2069.97
457.232	2092.35
457.606	2120.59
457.979	2155.62
458.352	2215.28
458.725	2194.94
459.099	2239.46
459.472	2243.3
459.845	2282.17
460.218	2314.94
460.591	2326.46
460.964	2347.03
461.337	2398.1
461.71	2413.92
462.083	2444.65
462.456	2468.38
462.829	2451.43
463.201	2487.59
463.574	2502.5
463.947	2576.63
464.32	2595.16
464.692	2606.23
465.065	2633.8
465.438	2655.27
465.81	2723.29
466.183	2692.56
466.555	2780.01
466.928	2805.55
467.3	2795.15
467.672	2861.37
468.045	2892.1
468.417	2894.36
468.789	2946.33
469.161	2965.09
469.534	3028.59
469.906	3079.44
470.278	3116.27
470.65	3143.17
471.022	3204.41
471.394	3229.27
471.766	3277.85
472.138	3305.2
472.51	3363.05
472.882	3445.08
473.253	3415.7
473.625	3489.15
473.997	3569.6
474.369	3577.28
474.74	3641.91
475.112	3715.58
475.484	3795.58
475.855	3838.06
476.227	3857.72
476.598	3992.86
476.97	4056.81
477.341	4062.46
477.713	4153.99
478.084	4194.89
478.455	4330.93
478.827	4390.14
479.198	4482.79
479.569	4527.31
479.94	4643.01
480.311	4702.22
480.682	4790.35
481.053	4891.59
481.424	4973.17
481.795	5044.81
482.166	5189.21
482.537	5219.04
482.908	5329.55
483.279	5420.39
483.65	5520.73
484.021	5587.62
484.391	5710.33
484.762	5802.08
485.133	5887.27
485.503	6013.82
485.874	6154.16
486.244	6186.7
486.615	6362.29
486.985	6521.16
487.356	6589.18
487.726	6748.04
488.097	6938.32
488.467	6960.01
488.837	7217.86
489.207	7280.68
489.578	7440
489.948	7606.1
490.318	7681.8
490.688	7844.74
491.058	8019.65
491.428	8176.25
491.798	8286.99
492.168	8510.93
492.538	8694.21
492.908	8728.1
493.278	8959.74
493.648	9060.3
494.017	9364.25
494.387	9412.83
494.757	9627.29
495.126	9809.43
495.496	9927.17
495.866	10155.41
496.235	10270.89
496.605	10594.27
496.974	10650.77
497.344	10971.21
497.713	11038.78
498.082	11246.23
498.452	11501.36
498.821	11643.73
499.19	11797.18
499.559	12078.3
499.928	12285.98
500.298	12466.99
500.667	12705.63
501.036	12823.59
501.405	13114.2
501.774	13287.76
502.143	13450.24
502.512	13667.63
502.88	14012.48
503.249	14059.72
503.618	14349.42
503.987	14595.52
504.356	14816.31
504.724	14981.27
505.093	15269.17
505.462	15410.87
505.83	15614.7
506.199	15854.24
506.567	16231.41
506.936	16346.43
507.304	16676.14
507.672	16829.13
508.041	17026.87
508.409	17271.38
508.777	17610.36
509.145	17853.29
509.514	17922.66
509.882	18215.99
510.25	18304.8
510.618	18667.73
510.986	18724.68
511.354	18970.55
511.722	19300.48
512.09	19650.98
512.458	19659.57
512.826	20012.55
513.193	20067.47
513.561	20307.91
513.929	20494.57
514.297	20794.23
514.664	20957.84
515.032	21158.74
515.4	21471.27
515.767	21653.41
516.135	21740.64
516.502	21727.31
516.869	22184.47
517.237	22320.51
517.604	22199.16
517.972	22770.9
518.339	22769.54
518.706	23022.87
519.073	23092.92
519.44	23166.82
519.808	23598.9
520.175	23596.41
520.542	23991.43
520.909	24170.86
521.276	24209.73
521.643	24476.39
522.009	24577.18
522.376	24885.65
522.743	25051.52
523.11	25298.52
523.477	25530.15
523.843	25639.52
524.21	25943.47
524.577	26046.52
524.943	26310.69
525.31	26431.82
525.676	26733.73
526.043	26767.4
526.409	26978.92
526.776	27282.64
527.142	27255.07
527.508	27369.65
527.874	27758.56
528.241	27773.7
528.607	27905
528.973	28229.51
529.339	28124.88
529.705	28525.32
530.071	28602.61
530.437	28712.66
530.803	28986.1
531.169	29019.32
531.535	29033.78
531.901	29123.73
532.267	29137.74
532.632	29358.97
532.998	29505.64
533.364	29659.08
533.73	29640.55
534.095	29867.89
534.461	29909.02
534.826	29979.07
535.192	30106.3
535.557	30191.95
535.923	30233.3
536.288	30339.29
536.653	30435.1
537.019	30384.71
537.384	30453.41
537.749	30475.78
538.114	30553.52
538.479	30409.34
538.845	30647.98
539.21	30568.21
539.575	30733.4
539.94	30723.91
540.305	30833.96
540.67	30713.51
541.034	30860.18
541.399	30862.66
541.764	30845.26
542.129	30835.55
542.494	30977.69
542.858	30857.01
543.223	30872.15
543.587	30996.67
543.952	30974.3
544.316	31004.58
544.681	30992.15
545.045	31113.73
545.41	31067.86
545.774	30986.28
546.138	31039.83
546.503	31120.28
546.867	31071.25
547.231	31131.13
547.595	31257
547.959	31265.59
548.324	31173.39
548.688	31100.62
549.052	31263.56
549.416	31121.19
549.779	31150.11
550.143	31156.44
550.507	31396.43
550.871	31327.06
551.235	31160.28
551.599	31493.38
551.962	31449.77
552.326	31548.52
552.689	31546.26
553.053	31317.79
553.417	31485.25
553.78	31734.28
554.143	31563.21
554.507	31616.32
554.87	31680.49
555.234	31812.92
555.597	31575.41
555.96	31672.36
556.323	31763.43
556.686	31844.56
557.05	31896.76
557.413	31935.63
557.776	31899.92
558.139	32090.43
558.502	32047.49
558.865	31992.12
559.228	32324.32
559.59	32205
559.953	32323.42
560.316	32564.54
560.679	32344.88
561.041	32541.04
561.404	32847.02
561.767	32870.97
562.129	32836.17
562.492	32992.1
562.854	32908.03
563.217	32917.3
563.579	32954.81
563.941	33146.67
564.304	33184.86
564.666	33506.21
565.028	33407.68
565.39	33376.27
565.753	33766.09
566.115	33692.42
566.477	33692.87
566.839	33822.36
567.201	34128.11
567.563	33960.89
567.925	34172.18
568.287	34213.54
568.648	34178.73
569.01	34265.06
569.372	34660.76
569.734	34439.74
570.095	34586.18
570.457	34760.64
570.819	34789.57
571.18	34649.68
571.542	34975.1
571.903	34875.89
572.265	35106.39
572.626	35110.01
572.987	35255.32
573.349	35423
573.71	35339.61
574.071	35425.03
574.432	35575.31
574.794	35611.92
575.155	35759.48
575.516	35483.78
575.877	35684.91
576.238	35605.82
576.599	35747.28
576.96	35717.22
577.32	35695.98
577.681	35747.51
578.042	35921.97
578.403	35926.26
578.763	35821.4
579.124	35966.71
579.485	36055.75
579.845	36182.52
580.206	36030.44
580.566	36003.77
580.927	36170.09
581.287	36122.19
581.648	36023.88
582.008	36251.45
582.368	36146.82
582.728	36154.28
583.089	35994.05
583.449	35959.93
583.809	36020.95
584.169	36246.7
584.529	36004
584.889	36204.9
585.249	35938.24
585.609	35788.18
585.969	35903.66
586.329	35793.15
586.688	36010.1
587.048	35883.32
587.408	35837
587.768	35800.16
588.127	35811.91
588.487	35740.5
588.846	35999.25
589.206	35554.74
589.565	35545.03
589.925	35734.63
590.284	35692.82
590.643	35692.37
591.003	35563.56
591.362	35762.87
591.721	35563.33
592.08	35638.36
592.44	35841.97
592.799	35492.37
593.158	35487.17
593.517	35414.41
593.876	35554.97
594.235	35428.64
594.593	35450.79
594.952	35504.12
595.311	35290.8
595.67	35540.51
596.029	35366.27
596.387	35482.2
596.746	35541.86
597.104	35270.46
597.463	35301.87
597.822	35410.79
598.18	35316.78
598.538	35299.38
598.897	35512.94
599.255	35197.24
599.613	35587.06
599.972	35341.64
600.33	35488.76
600.688	35347.29
601.046	35460.06
601.404	35767.62
601.762	35576.66
602.12	35578.92
602.478	35528.76
602.836	35689.2
603.194	35402.43
603.552	35565.36
603.91	35463.9
604.268	35567.62
604.625	35577.34
604.983	35717
605.341	35340.51
605.698	35661.41
606.056	35968.97
606.413	35591.58
606.771	35867.96
607.128	35661.63
607.485	35642.2
607.843	35749.54
608.2	35757.22
608.557	35997.9
608.914	35868.86
609.272	35983.21
609.629	36126.25
609.986	36156.31
610.343	35989.76
610.7	36390.88
611.057	36208.96
611.414	36173.94
611.771	36345
612.127	36316.08
612.484	36305.23
612.841	36579.8
613.198	36118.12
613.554	36276.08
613.911	36470.2
614.267	36467.49
614.624	36483.98
614.98	36526.92
615.337	36821.15
615.693	36753.81
616.05	36824.09
616.406	36912.45
616.762	36776.41
617.118	36822.05
617.475	36864.09
617.831	36983.41
618.187	36966.01
618.543	36983.63
618.899	37245.32
619.255	37052.78
619.611	37097.98
619.967	37188.6
620.323	37309.05
620.678	37063.63
621.034	37048.04
621.39	37120.13
621.746	37158.99
622.101	37608.02
622.457	37297.52
622.812	37475.37
623.168	37384.53
623.523	37425.88
623.879	37564.86
624.234	37370.29
624.589	37475.14
624.945	37477.63
625.3	37552.43
625.655	37425.43
626.01	37568.02
626.365	37476.73
626.72	37477.63
627.075	37490.51
627.43	37430.85
627.785	37464.52
628.14	37344.07
628.495	37458.42
628.85	37452.55
629.205	37491.87
629.559	37629.26
629.914	37343.62
630.269	37322.61
630.623	37224.3
630.978	37074.03
631.332	37350.4
631.687	37347.69
632.041	37230.41
632.396	37163.29
632.75	37056.17
633.104	37242.38
633.459	36942.73
633.813	36930.98
634.167	37058.66
634.521	36997.19
634.875	36986.8
635.229	36970.53
635.583	36747.93
635.937	36757.88
636.291	36745.67
636.645	36706.58
636.999	36611.89
637.352	36723.07
637.706	36461.84
638.06	36558.78
638.413	36418
638.767	36371.67
639.121	36584.09
639.474	36324.89
639.828	36165.35
640.181	36149.98
640.534	36295.06
640.888	36096.88
641.241	35968.74
641.594	36116.54
641.947	36061.62
642.301	36005.13
642.654	36065.24
643.007	36108.85
643.36	35979.82
643.713	35869.99
644.066	35970.78
644.419	35691.46
644.771	35451.24
645.124	34974.87
645.477	35124.7
645.83	34980.52
646.182	35014.19
646.535	34871.15
646.888	35018.71
647.24	34916.57
647.593	35145.04
647.945	35034.3
648.298	34815.33
648.65	34710.25
649.002	34508.89
649.355	34436.58
649.707	34327.66
650.059	34316.58
650.411	34855.33
650.763	35086.28
651.115	35618.92
651.467	35547.96
651.819	35517.91
652.171	35313.85
652.523	35359.27
652.875	35350.23
653.227	35277.24
653.578	35542.31
653.93	35381.64
654.282	35159.73
654.633	35364.69
654.985	35397.46
655.337	35324.69
655.688	35287.86
656.039	35524.01
656.391	35213.51
656.742	35157.24
657.094	35208.09
657.445	35403.56
657.796	35479.49
658.147	35233.17
658.498	35375.99
658.849	35441.07
659.2	35354.3
659.551	35274.98
659.902	35534.4
660.253	35347.97
660.604	35557
660.955	35424.13
661.306	35504.57
661.656	35334.41
662.007	35486.5
662.358	35529.88
662.708	35555.65
663.059	35505.93
663.409	35360.85
663.76	35629.77
664.11	35548.87
664.461	35505.03
664.811	35509.55
665.161	35629.09
665.511	35453.5
665.862	35592.48
666.212	35725.59
666.562	35762.65
666.912	35524.91
667.262	35464.58
667.612	35611.01
667.962	35632.48
668.312	35711.58
668.662	35753.16
669.011	35793.61
669.361	35793.61
669.711	35679.49
670.06	35606.27
670.41	35526.95
670.76	35622.09
671.109	35638.81
671.459	35731.01
671.808	35543.9
672.157	35599.04
672.507	35422.77
672.856	35352.04
673.205	35461.64
673.554	35445.14
673.904	35350.23
674.253	35608.08
674.602	35384.13
674.951	34911.82
675.3	34939.84
675.649	35503.67
675.998	35498.47
676.346	35370.12
676.695	35377.35
677.044	35229.55
677.393	35280.4
677.741	35367.86
678.09	35166.05
678.438	35021.88
678.787	35242.43
679.135	35091.7
679.484	34868.21
679.832	35088.31
680.181	34830.24
680.529	34906.85
680.877	34832.05
681.225	34826.4
681.573	35023.68
681.922	34583.02
682.27	34769.68
682.618	34672.96
682.966	34572.85
683.314	34579.18
683.661	34534.2
684.009	34417.6
684.357	34330.14
684.705	34179.41
685.053	34293.53
685.4	34039.75
685.748	33948.68
686.095	33882.47
686.443	33735.81
686.79	33671.18
687.138	33712.53
687.485	33634.34
687.832	33474.57
688.18	33435.25
688.527	33463.05
688.874	33296.5
689.221	33199.78
689.568	33081.14
689.915	33072.32
690.262	33097.86
690.609	32840.46
690.956	32726.12
691.303	32772.9
691.65	32617.19
691.997	32509.85
692.344	32332.68
692.69	32178.79
693.037	32295.39
693.383	31793.26
693.73	32011.56
694.077	31741.28
694.423	31758.23
694.769	31736.99
695.116	31542.42
695.462	31470.33
695.808	31210.68
696.155	31323.44
696.501	30982.66
696.847	31081.19
697.193	30824.47
697.539	30757.58
697.885	30553.07
698.231	30430.13
698.577	30383.81
698.923	30436.23
699.269	30140.65
699.614	30009.35
699.96	29970.26
700.306	29951.27
700.651	29757.61
700.997	29542.02
701.342	29556.26
701.688	29528.23
702.033	29391.06
702.379	29261.8
702.724	29078.98
703.069	29080.34
703.415	28814.36
703.76	28723.06
704.105	28744.07
704.45	28652.1
704.795	28542.5
705.14	28329.62
705.485	28422.05
705.83	28186.12
706.175	28147.48
706.52	28069.97
706.865	27936.19
707.209	27926.7
707.554	27865
707.899	27752.46
708.243	27736.64
708.588	27536.2
708.932	27445.58
709.277	27411
709.621	27282.87
709.966	27101.86
710.31	27290.55
710.654	27090.11
710.998	27004.46
711.342	27087.85
711.687	26834.07
712.031	26924.46
712.375	26785.48
712.719	26748.65
713.063	26677.69
713.407	26741.19
713.75	26749.1
714.094	26531.25
714.438	26468.88
714.782	26475.43
715.125	26314.53
715.469	26483.12
715.812	26300.07
716.156	26237.25
716.499	26262.33
716.843	26267.08
717.186	26162.22
717.53	26302.33
717.873	26275.21
718.216	26175.78
718.559	26069.12
718.902	25796.58
719.246	25919.97
719.589	26061.21
719.932	25703.7
720.275	25830.25
720.617	25833.87
720.96	25716.81
721.303	25827.09
721.646	25817.15
721.989	25670.48
722.331	25694.89
722.674	25747.77
723.016	25867.54
723.359	25793.64
723.701	25748.45
724.044	25472.07
724.386	25440.21
724.729	25592.97
725.071	25501
725.413	25616.47
725.755	25565.85
726.097	25481.34
726.439	25467.78
726.782	25477.27
727.124	25523.59
727.465	25656.02
727.807	25519.98
728.149	25592.52
728.491	25395.01
728.833	25499.41
729.175	25566.76
729.516	25381.23
729.858	25472.97
730.199	25433.2
730.541	25588.9
730.882	25508.68
731.224	25550.71
731.565	25543.25
731.906	25438.4
732.248	25594.78
732.589	25595.68
732.93	25429.36
733.271	25602.91
733.612	25665.51
733.953	25635.46
734.294	25657.15
734.635	25555.68
734.976	25760.88
735.317	25679.07
735.658	25604.04
735.999	25637.94
736.339	25765.85
736.68	25793.64
737.021	25715.68
737.361	25621.67
737.702	25904.15
738.042	25881.55
738.383	25911.15
738.723	25926.52
739.063	25953.19
739.404	26191.15
739.744	25956.58
740.084	26077.48
740.424	26053.07
740.764	26082.45
741.104	26364.25
741.444	26217.14
741.784	26386.17
742.124	26434.98
742.464	26496.68
742.804	26470.01
743.143	26618.03
743.483	26771.7
743.823	26833.16
744.162	26794.52
744.502	26952.48
744.841	27065.47
745.181	27199.48
745.52	27355.64
745.86	27355.41
746.199	27392.92
746.538	27453.49
746.877	27668.62
747.216	27729.19
747.556	27858.67
747.895	28011.66
748.234	28083.08
748.573	28244.43
748.911	28262.73
749.25	28454.36
749.589	28540.01
749.928	28723.96
750.267	28937.74
750.605	28886.44
750.944	29072.43
751.283	29209.83
751.621	29400.1
751.96	29413.89
752.298	29610.04
752.636	29871.28
752.975	30014.55
753.313	30074.89
753.651	30249.12
753.989	30417.03
754.327	30612.95
754.666	30621.09
755.004	30936.33
755.342	31015.65
755.679	31216.33
756.017	31044.35
756.355	31515.3
756.693	31485.02
757.031	31665.58
757.368	31773.37
757.706	31881.85
758.044	32001.62
758.381	32109.86
758.719	32358.44
759.056	32421.49
759.394	32631.2
759.731	32496.97
760.068	32673.24
760.405	32989.84
760.743	32916.39
761.08	33137.18
761.417	33192.55
761.754	33113.9
762.091	33345.99
762.428	33242.04
762.765	33273.22
763.102	33525.42
763.438	33580.11
763.775	33522.48
764.112	33640.44
764.449	33807.67
764.785	33867.56
765.122	33856.26
765.458	33797.28
765.795	33856.93
766.131	34153.42
766.467	34126.53
766.804	33942.81
767.14	34033.65
767.476	34074.1
767.812	33956.37
768.148	34156.36
768.485	34148.9
768.821	33971.73
769.157	33987.78
769.492	33999.08
769.828	34109.13
770.164	33812.19
770.5	33962.92
770.836	34023.94
771.171	33956.82
771.507	33859.65
771.842	33983.94
772.178	33907.55
772.513	33833.43
772.849	33759.08
773.184	33837.95
773.519	33814.9
773.855	33531.52
774.19	33536.27
774.525	33515.47
774.86	33616.71
775.195	33411.07
775.53	33261.24
775.865	33163.17
776.2	33042.72
776.535	33024.19
776.87	33063.74
777.205	32853.35
777.539	32748.26
777.874	32902.61
778.209	32549.85
778.543	32672.11
778.878	32472.56
779.212	32510.53
779.547	32347.14
779.881	32254.04
780.215	32129.97
780.55	32152.8
780.884	31892.01
781.218	31940.15
781.552	31985.35
781.886	31840.26
782.22	31687.5
782.554	31570.67
782.888	31314.18
783.222	31343.55
783.556	31173.39
783.889	31098.59
784.223	31004.81
784.557	30840.29
784.89	31044.35
785.224	30737.47
785.557	30664.7
785.891	30533.18
786.224	30573.41
786.558	30584.03
786.891	30267.65
787.224	30174.32
787.557	30083.7
787.891	30114.89
788.224	29847.32
788.557	29875.8
788.89	29800.09
789.223	29775.69
789.556	29558.52
789.888	29659.53
790.221	29576.6
790.554	29238.07
790.887	29295.02
791.219	29046.89
791.552	29096.83
791.884	28962.37
792.217	28983.62
792.549	28834.69
792.882	28706.79
793.214	28530.3
793.546	28584.53
793.879	28440.58
794.211	28304.99
794.543	28366.23
794.875	28196.29
795.207	28217.99
795.539	28058.22
795.871	28152.45
796.203	27951.55
796.535	27774.38
796.867	27701.84
797.198	27523.32
797.53	27600.38
797.862	27368.29
798.193	27509.98
798.525	27239.03
798.856	27381.17
799.188	27063.21
799.519	26958.36
799.85	26939.83
800.182	26873.16
800.513	26994.97
800.844	26547.3
801.175	26878.81
801.506	26779.61
801.837	26520.4
802.168	26656.22
802.499	26685.6
802.83	26322.22
803.161	26302.11
803.491	26427.98
803.822	26363.12
804.153	26144.37
804.483	25970.59
804.814	25766.07
805.145	25964.94
805.475	25860.76
805.805	25792.51
806.136	25830.48
806.466	25658.28
806.796	25607.89
807.126	25551.62
807.457	25436.82
807.787	25461
808.117	25430.04
808.447	25315.69
808.777	25406.08
809.107	25143.94
809.436	25163.83
809.766	25194.34
810.096	25096.94
810.426	24948.24
810.755	25024.4
811.085	24917.96
811.414	24930.39
811.744	24720.23
812.073	24783.95
812.403	24613.56
812.732	24572.88
813.061	24765.2
813.39	24476.39
813.719	24359.11
814.049	24543.28
814.378	24397.52
814.707	24322.04
815.036	24317.98
815.365	24171.99
815.693	24094.25
816.022	24151.88
816.351	24020.13
816.68	23837.99
817.008	24028.49
817.337	23807.71
817.665	23803.64
817.994	23692.91
818.322	23848.84
818.651	23702.17
818.979	23485
819.307	23615.4
819.636	23523.87
819.964	23547.83
820.292	23500.14
820.62	23450.43
820.948	23598.9
821.276	23674.38
821.604	23499.24
821.932	23603.42
822.259	23549.86
822.587	23478.68
822.915	23489.52
823.243	23458.56
823.57	23444.78
823.898	23570.43
824.225	23607.49
824.553	23447.49
824.88	23601.16
825.207	23547.6
825.535	23459.24
825.862	23518.68
826.189	23463.76
826.516	23676.86
826.843	23651.55
827.17	23683.87
827.497	23565
827.824	23641.16
828.151	23781.04
828.478	23625.79
828.805	23751.66
829.131	23663.53
829.458	23647.94
829.785	23459.92
830.111	23697.43
830.438	23764.32
830.764	23734.49
831.09	23621.05
831.417	23487.04
831.743	23679.35
832.069	23595.74
832.395	23590.99
832.722	23656.75
833.048	23472.12
833.374	23520.03
833.7	23472.57
834.026	23499.92
834.351	23438
834.677	23695.85
835.003	23439.81
835.329	23503.53
835.654	23466.25
835.98	23252.47
836.306	23475.51
836.631	23326.82
836.956	23465.8
837.282	23371.11
837.607	23348.74
837.932	23285.46
838.258	23288.4
838.583	23146.26
838.908	23245.46
839.233	23142.87
839.558	23148.29
839.883	23087.73
840.208	22904
840.533	22999.14
840.858	23063.55
841.182	23042.76
841.507	22975.41
841.832	22811.12
842.156	22847.73
842.481	22834.63
842.805	22675.08
843.13	22767.06
843.454	22606.83
843.778	22543.79
844.103	22610.45
844.427	22408.42
844.751	22566.84
845.075	22421.98
845.399	22374.98
845.723	22337.46
846.047	22266.73
846.371	22062.22
846.695	22048.43
847.019	22023.8
847.343	21855.44
847.666	21901.32
847.99	21665.16
848.313	21665.39
848.637	21635.79
848.96	21511.5
849.284	21459.97
849.607	21397.6
849.931	21243.25
850.254	21151.73
850.577	20971.62
850.9	20858.86
851.223	20915.81
851.546	20752.87
851.869	20596.94
852.192	20785.41
852.515	20549.49
852.838	20287.12
853.161	20502.71
853.483	20286.9
853.806	20207.58
854.129	20196.28
854.451	20170.51
854.774	19954.48
855.096	19978.43
855.419	19907.92
855.741	19895.27
856.063	19813.69
856.385	19706.35
856.708	19620.25
857.03	19672.45
857.352	19617.54
857.674	19609.17
857.996	19497.54
858.318	19465.67
858.64	19354.94
858.961	19309.07
859.283	19300.93
859.605	19174.61
859.926	19185.23
860.248	19120.15
860.57	18977.1
860.891	19057.55
861.212	19068.85
861.534	18909.98
861.855	18807.61
862.176	18856.43
862.498	18818.01
862.819	18796.77
863.14	18713.38
863.461	18731.23
863.782	18697.11
864.103	18589.09
864.424	18542.54
864.745	18651.01
865.065	18498.92
865.386	18395.87
865.707	18496.43
866.027	18504.8
866.348	18387.96
866.668	18380.05
866.989	18253.96
867.309	18242.2
867.63	18188.42
867.95	18213.05
868.27	18083.79
868.59	18185.48
868.91	18101.19
869.23	18104.35
869.55	17946.39
869.87	18107.97
870.19	18099.61
870.51	18044.7
870.83	18020.06
871.15	17916.34
871.469	17904.36
871.789	17860.75
872.109	17945.94
872.428	17800.41
872.748	17878.37
873.067	17864.81
873.386	17789.56
873.706	17776
874.025	17721.09
874.344	17598.38
874.663	17660.98
874.982	17607.87
875.301	17578.94
875.62	17474.54
875.939	17519.74
876.258	17522
876.577	17418.27
876.896	17443.58
877.214	17391.83
877.533	17435.67
877.852	17410.81
878.17	17389.57
878.489	17411.72
878.807	17258.5
879.125	17267.09
879.444	17225.28
879.762	17166.07
880.08	17236.81
880.398	17078.39
880.716	17143.25
881.034	17095.12
881.352	16988.9
881.67	16950.26
881.988	16983.71
882.306	16930.6
882.624	16868.45
882.941	16847.44
883.259	16767.89
883.577	16744.62
883.894	16797.5
884.212	16630.49
884.529	16588.69
884.846	16544.4
885.164	16532.42
885.481	16385.08
885.798	16444.29
886.115	16355.7
886.432	16411.52
886.75	16301.69
887.067	16307.79
887.383	16282.93
887.7	16286.32
888.017	16151.19
888.334	16231.41
888.651	16056.5
888.967	16063.05
889.284	16084.07
889.6	16000.91
889.917	15904.41
890.233	15924.98
890.55	15971.98
890.866	15763.85
891.182	15838.2
891.498	15731.08
891.815	15740.12
892.131	15632.56
892.447	15576.74
892.763	15579.45
893.079	15429.62
893.395	15457.42
893.71	15372.9
894.026	15311.21
894.342	15335.84
894.657	15192.79
894.973	15199.35
895.289	15209.06
895.604	15124.77
895.92	15024.66
896.235	14952.35
896.55	15012.91
896.865	14915.29
897.181	14876.42
897.496	14861.95
897.811	14763.88
898.126	14667.61
898.441	14603.88
898.756	14702.64
899.071	14582.19
899.386	14580.61
899.7	14468.07
900.015	14406.37
900.33	14321.86
900.644	14257.22
900.959	14218.35
901.273	14217.9
901.588	14169.32
901.902	14047.74
902.216	14063.1
902.531	13988.98
902.845	13914.86
903.159	13894.75
903.473	13771.14
903.787	13723
904.101	13703.11
904.415	13792.6
904.729	13620.86
905.042	13499.73
905.356	13545.38
905.67	13516.23
905.984	13569.78
906.297	13411.37
906.611	13297.25
906.924	13327.98
907.237	13203.47
907.551	13182.68
907.864	13171.6
908.177	13106.07
908.491	13062
908.804	13034.88
909.117	12952.63
909.43	12905.4
909.743	12801.9
910.056	12758.28
910.368	12754.44
910.681	12753.31
910.994	12577.72
911.307	12605.52
911.619	12388.8
911.932	12527.55
912.244	12391.51
912.557	12375.01
912.869	12297.05
913.181	12328.01
913.494	12247.56
913.806	12142.93
914.118	12033.1
914.43	12007.57
914.742	12006.89
915.054	11868.36
915.366	11879.43
915.678	11884.63
915.99	11794.69
916.302	11678.53
916.613	11735.03
916.925	11718.53
917.236	11582.04
917.548	11524.41
917.859	11631.53
918.171	11502.72
918.482	11426.79
918.794	11282.84
919.105	11355.38
919.416	11239.68
919.727	11232.22
920.038	11188.6
920.349	11080.36
920.66	11120.13
920.971	11057.99
921.282	11121.94
921.593	10966.92
921.903	10896.63
922.214	10859.57
922.525	10798.11
922.835	10740.03
923.146	10737.09
923.456	10649.64
923.767	10639.47
924.077	10600.6
924.387	10593.14
924.697	10502.97
925.008	10472.24
925.318	10403.31
925.628	10386.82
925.938	10382.52
926.248	10239.25
926.558	10163.32
926.867	10215.75
927.177	10129.65
927.487	10143.43
927.796	10086.94
928.106	10087.39
928.416	9977.11
928.725	9969.88
929.034	9875.64
929.344	9900.05
929.653	9887.4
929.962	9829.32
930.271	9737.34
930.581	9663.67
930.89	9621.41
931.199	9533.28
931.508	9484.92
931.817	9526.95
932.125	9573.96
932.434	9457.8
932.743	9350.01
933.051	9339.39
933.36	9286.73
933.669	9233.18
933.977	9265.04
934.286	9164.02
934.594	9117.02
934.902	9165.61
935.21	9071.82
935.519	9034.76
935.827	8987.53
936.135	8938.27
936.443	8866.41
936.751	8846.07
937.059	8886.07
937.367	8685.85
937.674	8742.79
937.982	8742.57
938.29	8682.91
938.597	8659.18
938.905	8614.89
939.213	8577.83
939.52	8491.73
939.827	8571.05
940.135	8447.43
940.442	8477.26
940.749	8424.38
941.056	8411.73
941.363	8342.35
941.67	8297.15
941.977	8204.95
942.284	8212.19
942.591	8183.71
942.898	8189.36
943.205	8221.45
943.511	8033.66
943.818	8108.91
944.125	8014.45
944.431	7916.83
944.738	7868.01
945.044	7865.75
945.35	7841.57
945.657	7830.95
945.963	7854.91
946.269	7806.09
946.575	7783.72
946.881	7689.94
947.187	7671.63
947.493	7598.19
947.799	7620.56
948.105	7522.71
948.41	7431.87
948.716	7506.44
949.022	7390.51
949.327	7390.51
949.633	7340.12
949.938	7308.03
950.244	7320.91
950.549	7251.76
950.854	7201.14
951.16	7230.74
951.465	7184.87
951.77	7153.68
952.075	7094.25
952.38	7062.84
952.685	7097.19
952.99	7047.7
953.294	7044.08
953.599	6909.62
953.904	6861.94
954.209	6829.85
954.513	6926.57
954.818	6865.55
955.122	6871.66
955.426	6809.06
955.731	6746.69
956.035	6747.59
956.339	6752.79
956.643	6660.36
956.948	6632.11
957.252	6531.1
957.556	6590.31
957.86	6593.02
958.163	6536.75
958.467	6499.69
958.771	6462.17
959.075	6437.77
959.378	6412.01
959.682	6376.3
959.985	6312.35
960.289	6272.35
960.592	6288.17
960.896	6289.52
961.199	6244.55
961.502	6193.71
961.805	6162.3
962.108	6136.76
962.411	6113.26
962.714	6053.82
963.017	6112.58
963.32	6045.46
963.623	6014.95
963.926	6022.19
964.228	5961.4
964.531	5981.96
964.833	5922.3
965.136	5894.73
965.438	5860.38
965.741	5748.52
966.043	5765.7
966.345	5790.55
966.648	5738.35
966.95	5788.75
967.252	5721.4
967.554	5713.49
967.856	5663.78
968.158	5674.4
968.46	5600.5
968.761	5658.35
969.063	5549.2
969.365	5485.03
969.666	5527.74
969.968	5457.91
970.269	5451.13
970.571	5441.18
970.872	5399.15
971.174	5315.54
971.475	5391.47
971.776	5341.98
972.077	5259.04
972.378	5315.76
972.679	5261.53
972.98	5201.42
973.281	5184.69
973.582	5203.9
973.883	5152.83
974.183	5152.83
974.484	5141.76
974.785	5134.75
975.085	5043.91
975.386	5094.08
975.686	5043
975.986	5036
976.287	4983.8
976.587	4929.11
976.887	4878.94
977.187	4925.72
977.487	4910.58
977.787	4858.6
978.087	4803.46
978.387	4824.48
978.687	4818.83
978.987	4792.39
979.286	4718.04
979.586	4695.67
979.885	4683.69
980.185	4702
980.484	4658.15
980.784	4623.8
981.083	4600.75
981.382	4619.06
981.682	4580.64
981.981	4595.78
982.28	4583.35
982.579	4514.88
982.878	4492.51
983.177	4465.84
983.475	4474.2
983.774	4417.71
984.073	4439.18
984.372	4379.52
984.67	4384.26
984.969	4391.95
985.267	4384.94
985.566	4316.92
985.864	4298.39
986.162	4272.63
986.461	4211.16
986.759	4241.44
987.057	4239.86
987.355	4183.14
987.653	4174.33
987.951	4149.24
988.249	4150.15
988.547	4132.74
988.844	4054.55
989.142	4062.46
989.44	4036.25
989.737	4079.86
990.035	4043.26
990.332	4001.45
990.63	3948.79
990.927	3933.2
991.224	3942.01
991.521	3896.59
991.819	3910.83
992.116	3877.38
992.413	3823.15
992.71	3811.62
993.006	3850.27
993.303	3809.59
993.6	3819.31
993.897	3760.32
994.193	3744.73
994.49	3771.85
994.787	3690.27
995.083	3703.83
995.379	3676.49
995.676	3636.94
995.972	3647.11
996.268	3634.23
996.565	3602.36
996.861	3591.74
997.157	3584.96
997.453	3551.29
997.749	3536.83
998.044	3466.77
998.34	3502.03
998.636	3495.93
998.932	3478.07
999.227	3441.46
999.523	3448.02
999.818	3401.46
1000.114	3366.21
1000.409	3355.36
1000.704	3321.24
1001	3340
1001.295	3272.65
1001.59	3266.1
1001.885	3280.34
1002.18	3253.67
1002.475	3242.6
1002.77	3197.85
1003.065	3173.45
1003.359	3166.67
1003.654	3130.28
1003.949	3126.67
1004.243	3166.22
1004.538	3081.7
1004.832	3076.5
1005.127	3078.08
1005.421	3034.92
1005.715	3024.52
1006.009	3025.43
1006.304	2973.68
1006.598	2990.4
1006.892	2941.82
1007.186	2928.48
1007.48	2927.35
1007.773	2957.63
1008.067	2870.4
1008.361	2882.61
1008.655	2864.98
1008.948	2868.14
1009.242	2818.65
1009.535	2801.48
1009.829	2791.31
1010.122	2788.82
1010.415	2764.87
1010.708	2735.27
1011.001	2720.13
1011.295	2732.1
1011.588	2724.87
1011.881	2681.71
1012.173	2681.94
1012.466	2690.75
1012.759	2615.72
1013.052	2616.63
1013.344	2591.54
1013.637	2610.07
1013.93	2545.22
1014.222	2513.8
1014.514	2533.46
1014.807	2511.54
1015.099	2518.78
1015.391	2522.39
1015.683	2489.17
1015.976	2450.75
1016.268	2441.94
1016.56	2409.4
1016.851	2380.02
1017.143	2388.61
1017.435	2355.62
1017.727	2333.7
1018.018	2328.5
1018.31	2355.62
1018.602	2307.26
1018.893	2270.87
1019.185	2253.92
1019.476	2259.57
1019.767	2219.8
1020.058	2208.5
1020.35	2186.13
1020.641	2190.2
1020.932	2146.58
1021.223	2170.54
1021.514	2160.82
1021.804	2119.92
1022.095	2120.37
1022.386	2114.49
1022.677	2079.92
1022.967	2053.93
1023.258	2064.78
1023.548	2031.1
1023.839	2018.45
1024.129	2037.21
1024.419	2006.7
1024.709	1977.77
1025	1991.11
1025.29	1930.54
1025.58	1961.5
1025.87	1938.68
1026.16	1887.38
1026.449	1922.41
1026.739	1899.81
1027.029	1862.75
1027.319	1864.33
1027.608	1855.97
1027.898	1820.94
1028.187	1830.88
1028.477	1813.26
1028.766	1799.47
1029.055	1818
1029.344	1796.08
1029.634	1783.43
1029.923	1777.55
1030.212	1729.87
1030.501	1741.39
1030.79	1731.45
1031.078	1677.67
1031.367	1711.57
1031.656	1708.18
1031.945	1651.45
1032.233	1666.37
1032.522	1634.51
1032.81	1621.85
1033.099	1654.17
1033.387	1619.59
1033.675	1575.75
1033.963	1598.57
1034.251	1589.31
1034.54	1566.03
1034.828	1545.92
1035.116	1520.16
1035.403	1527.84
1035.691	1516.77
1035.979	1508.41
1036.267	1487.62
1036.554	1486.71
1036.842	1475.64
1037.129	1473.83
1037.417	1464.57
1037.704	1432.7
1037.992	1433.83
1038.279	1415.53
1038.566	1426.83
1038.853	1426.83
1039.14	1426.83
