Data from 7737_FLMS001491_008.txt Node
Date: Thu Apr 19 15:41:18 BST 2018
User: hsy
Spectrometer: FLMS00149
Trigger mode: 0
Integration Time (sec): 1.000000E-2
Scans to average: 10
Electric dark correction enabled: true
Nonlinearity correction enabled: false
Boxcar width: 0
XAxis mode: Wavelengths
Number of Pixels in Spectrum: 2048
>>>>>Begin Spectral Data<<<<<
341.393	-26.13
341.776	-26.13
342.16	-26.13
342.543	-61.38
342.927	-72.23
343.31	-81.95
343.693	-69.97
344.077	-66.35
344.46	-70.2
344.843	-53.47
345.226	-57.54
345.61	-25.68
345.993	-12.34
346.376	-0.59
346.759	13.19
347.142	29.69
347.525	57.71
347.908	56.13
348.291	78.5
348.674	95
349.057	107.88
349.44	135
349.823	142
350.206	170.93
350.588	214.32
350.971	234.88
351.354	252.96
351.737	269.91
352.119	276.91
352.502	285.95
352.884	283.24
353.267	317.82
353.65	309.23
354.032	314.65
354.414	361.88
354.797	351.49
355.179	351.04
355.562	369.11
355.944	362.34
356.326	351.04
356.709	360.53
357.091	353.97
357.473	366.18
357.855	369.57
358.238	377.25
358.62	367.08
359.002	394.65
359.384	374.76
359.766	398.27
360.148	369.11
360.53	354.2
360.912	355.56
361.294	390.13
361.676	387.87
362.057	365.72
362.439	388.32
362.821	368.89
363.203	361.21
363.584	356.69
363.966	347.42
364.348	382.22
364.729	367.31
365.111	360.98
365.493	353.52
365.874	372.5
366.256	363.24
366.637	368.89
367.019	365.05
367.4	368.44
367.781	382.45
368.163	360.53
368.544	380.19
368.925	353.07
369.306	381.54
369.688	371.15
370.069	363.01
370.45	353.52
370.831	368.21
371.212	376.8
371.593	336.12
371.974	357.36
372.355	386.97
372.736	371.15
373.117	384.71
373.498	375.44
373.879	375.22
374.26	354.88
374.641	361.88
375.021	385.39
375.402	386.97
375.783	390.58
376.163	399.4
376.544	400.75
376.925	392.62
377.305	393.97
377.686	392.84
378.066	387.65
378.447	421.54
378.827	408.44
379.208	396.01
379.588	415.44
379.968	416.34
380.349	403.01
380.729	400.53
381.109	421.77
381.489	412.73
381.87	414.54
382.25	424.25
382.63	405.72
383.01	422.9
383.39	427.64
383.77	431.49
384.15	422.67
384.53	402.11
384.91	454.31
385.29	438.94
385.67	437.36
386.049	446.17
386.429	447.3
386.809	447.76
387.189	440.3
387.568	438.94
387.948	466.97
388.328	464.25
388.707	461.09
389.087	466.74
389.466	469.45
389.846	456.12
390.225	469.45
390.605	453.41
390.984	473.29
391.363	462.45
391.743	471.48
392.122	495.66
392.501	474.2
392.881	497.25
393.26	496.34
393.639	492.95
394.018	482.11
394.397	518.72
394.776	487.76
395.155	527.3
395.534	506.06
395.913	513.52
396.292	541.99
396.671	521.88
397.05	525.04
397.429	518.04
397.808	519.39
398.186	539.05
398.565	539.05
398.944	550.13
399.323	536.34
399.701	524.82
400.08	569.34
400.458	528.43
400.837	572.95
401.215	567.53
401.594	554.19
401.972	557.36
402.351	561.43
402.729	561.43
403.107	589
403.486	581.54
403.864	588.32
404.242	595.1
404.62	576.79
404.999	611.82
405.377	600.75
405.755	620.86
406.133	597.13
406.511	614.53
406.889	630.12
407.267	627.64
407.645	633.51
408.023	639.16
408.401	646.85
408.779	658.15
409.156	651.37
409.534	661.54
409.912	690.01
410.29	672.16
410.667	687.07
411.045	695.89
411.422	707.64
411.8	717.35
412.178	725.49
412.555	712.38
412.933	741.76
413.31	740.63
413.687	744.92
414.065	747.18
414.442	740.86
414.819	754.87
415.197	788.31
415.574	773.85
415.951	792.15
416.328	784.02
416.705	818.59
417.082	765.71
417.46	788.09
417.837	806.39
418.214	807.3
418.591	826.5
418.967	841.64
419.344	823.34
419.721	832.15
420.098	845.94
420.475	848.42
420.852	813.17
421.228	874.41
421.605	858.82
421.982	877.58
422.358	892.49
422.735	895.43
423.111	886.16
423.488	884.81
423.864	915.99
424.241	909.44
424.617	931.13
424.994	948.99
425.37	932.49
425.746	920.51
426.123	927.29
426.499	965.71
426.875	960.29
427.251	972.04
427.627	1006.61
428.003	1002.54
428.379	1003.45
428.756	1014.3
429.132	1031.7
429.507	1037.57
429.883	1035.31
430.259	1047.74
430.635	1065.14
431.011	1063.79
431.387	1085.03
431.763	1137
432.138	1093.84
432.514	1120.96
432.89	1132.71
433.265	1132.03
433.641	1174.07
434.016	1148.53
434.392	1191.24
434.767	1206.83
435.143	1202.54
435.518	1201.64
435.894	1227.17
436.269	1235.76
436.644	1257
437.02	1242.76
437.395	1263.33
437.77	1296.77
438.145	1306.72
438.52	1306.27
438.895	1300.62
439.271	1329.99
439.646	1361.86
440.021	1373.83
440.395	1350.11
440.77	1350.56
441.145	1349.2
441.52	1379.03
441.895	1391.23
442.27	1380.61
442.645	1388.3
443.019	1417
443.394	1426.49
443.769	1456.09
444.143	1437.11
444.518	1454.06
444.892	1446.83
445.267	1443.21
445.641	1459.71
446.016	1468.75
446.39	1497.9
446.764	1518.01
447.139	1492.93
447.513	1490.22
447.887	1503.55
448.262	1535.64
448.636	1507.84
449.01	1538.8
449.384	1537.67
449.758	1544.68
450.132	1581.29
450.506	1592.81
450.88	1637.56
451.254	1626.03
451.628	1632.13
452.002	1631.45
452.376	1686.37
452.75	1692.92
453.123	1680.04
453.497	1696.31
453.871	1741.51
454.244	1765.01
454.618	1795.07
454.992	1804.11
455.365	1807.95
455.739	1856.08
456.112	1871.45
456.486	1858.11
456.859	1892.69
457.232	1915.74
457.606	1936.31
457.979	1983.31
458.352	2007.04
458.725	2002.52
459.099	2021.27
459.472	2050.43
459.845	2095.62
460.218	2103.53
460.591	2116.64
460.964	2124.77
461.337	2181.27
461.71	2213.59
462.083	2209.29
462.456	2214.49
462.829	2239.57
463.201	2306.46
463.574	2314.37
463.947	2323.41
464.32	2349.18
464.692	2365.45
465.065	2383.07
465.438	2416.52
465.81	2474.82
466.183	2442.05
466.555	2529.51
466.928	2550.07
467.3	2535.39
467.672	2616.29
468.045	2649.73
468.417	2660.13
468.789	2690.18
469.161	2685.66
469.534	2755.49
469.906	2761.14
470.278	2844.08
470.65	2834.81
471.022	2919.33
471.394	2994.13
471.766	3003.62
472.138	3042.72
472.51	3070.29
472.882	3137.4
473.253	3143.73
473.625	3223.73
473.997	3215.14
474.369	3255.14
474.74	3293.33
475.112	3394.8
475.484	3442.71
475.855	3501.69
476.227	3499.65
476.598	3617.84
476.97	3691.29
477.341	3745.07
477.713	3758.86
478.084	3820.32
478.455	3926.31
478.827	3952.52
479.198	4056.25
479.569	4112.29
479.94	4223.7
480.311	4250.59
480.682	4364.72
481.053	4459.4
481.424	4538.27
481.795	4611.94
482.166	4702.11
482.537	4728.55
482.908	4833.18
483.279	4908.88
483.65	5018.48
484.021	5126.96
484.391	5215.54
484.762	5285.82
485.133	5375.76
485.503	5460.05
485.874	5646.72
486.244	5719.26
486.615	5826.6
486.985	5950.21
487.356	6092.35
487.726	6166.7
488.097	6305.68
488.467	6374.38
488.837	6554.04
489.207	6644.43
489.578	6794.93
489.948	6939.79
490.318	7072.22
490.688	7191.08
491.058	7370.29
491.428	7497.74
491.798	7577.74
492.168	7835.58
492.538	7967.78
492.908	8127.33
493.278	8279.19
493.648	8397.38
494.017	8576.13
494.387	8767.54
494.757	8891.83
495.126	9029.45
495.496	9177.24
495.866	9334.98
496.235	9503.56
496.605	9748.3
496.974	9886.15
497.344	10111.46
497.713	10253.37
498.082	10426.48
498.452	10652.91
498.821	10841.83
499.19	10996.41
499.559	11226.46
499.928	11426.22
500.298	11592.1
500.667	11833.22
501.036	11975.14
501.405	12222.14
501.774	12389.36
502.143	12622.8
502.512	12741.44
502.88	13118.16
503.249	13204.48
503.618	13519.28
503.987	13703.23
504.356	13870.23
504.724	14045.37
505.093	14279.48
505.462	14473.15
505.83	14702.97
506.199	14989.52
506.567	15313.81
506.936	15455.72
507.304	15699.33
507.672	15900.91
508.041	16095.71
508.409	16304.51
508.777	16598.52
509.145	16841.22
509.514	17005.06
509.882	17211.84
510.25	17387.88
510.618	17592.62
510.986	17806.17
511.354	18083.45
511.722	18246.16
512.09	18488.64
512.458	18572.93
512.826	18906.03
513.193	19027.16
513.561	19265.34
513.929	19328.62
514.297	19636.4
514.664	19875.49
515.032	19980.12
515.4	20228.71
515.767	20416.05
516.135	20647
516.502	20481.13
516.869	20955.01
517.237	21115.91
517.604	21081.79
517.972	21476.81
518.339	21627.99
518.706	21699.63
519.073	21878.15
519.44	22064.82
519.808	22317.46
520.175	22361.3
520.542	22650.11
520.909	22764.46
521.276	22839.26
521.643	23149.08
522.009	23347.49
522.376	23435.63
522.743	23608.28
523.11	23934.37
523.477	24151.77
523.843	24218.43
524.21	24511.98
524.577	24765.08
524.943	24749.26
525.31	25004.17
525.676	25187.45
526.043	25358.97
526.409	25449.59
526.776	25836.02
527.142	25772.74
527.508	26010.7
527.874	26207.98
528.241	26230.58
528.607	26375.66
528.973	26655.43
529.339	26645.26
529.705	26954.18
530.071	27048.64
530.437	27140.16
530.803	27302.64
531.169	27311.91
531.535	27578.12
531.901	27599.59
532.267	27585.12
532.632	27838.67
532.998	27899.01
533.364	28061.95
533.73	28130.87
534.095	28236.86
534.461	28265.1
534.826	28395.5
535.192	28349.17
535.557	28586.45
535.923	28606.11
536.288	28680.69
536.653	28764.98
537.019	28656.73
537.384	28752.78
537.749	28743.96
538.114	28847.01
538.479	28765.2
538.845	28848.37
539.21	28699.9
539.575	29040.45
539.94	28982.6
540.305	29026.21
540.67	29012.66
541.034	29053.33
541.399	29003.39
541.764	29089.04
542.129	29200.22
542.494	29174.01
542.858	29185.31
543.223	29104.86
543.587	29244.74
543.952	29198.64
544.316	29333.55
544.681	29264.63
545.045	29297.62
545.41	29358.41
545.774	29320.9
546.138	29367.22
546.503	29400.89
546.867	29244.29
547.231	29294.23
547.595	29468.46
547.959	29478.86
548.324	29480.67
548.688	29522.92
549.052	29531.51
549.416	29296.04
549.779	29447.67
550.143	29464.39
550.507	29627.33
550.871	29552.98
551.235	29577.84
551.599	29733.99
551.962	29726.76
552.326	29787.1
552.689	29643.37
553.053	29525.86
553.417	29704.39
553.78	29922.46
554.143	29781.22
554.507	29838.62
554.87	30024.61
555.234	29993.87
555.597	29905.74
555.96	29941.67
556.323	29969.47
556.686	29915.23
557.05	30093.3
557.413	30103.7
557.776	30157.48
558.139	30293.53
558.502	30367.42
558.865	30314.09
559.228	30438.83
559.59	30354.31
559.953	30383.92
560.316	30666.17
560.679	30786.17
561.041	30689.9
561.404	30799.05
561.767	30944.36
562.129	30811.25
562.492	31051.25
562.854	31039.49
563.217	31092.6
563.579	31093.96
563.941	31257.57
564.304	31360.39
564.666	31410.56
565.028	31450.11
565.39	31392.93
565.753	31645.13
566.115	31544.34
566.477	31802.64
566.839	31820.72
567.201	32132.57
567.563	31989.07
567.925	32075.17
568.287	32196.98
568.648	32244.66
569.01	32329.4
569.372	32508.83
569.734	32462.73
570.095	32580.02
570.457	32786.79
570.819	32716.51
571.18	32631.09
571.542	32969.16
571.903	32970.07
572.265	32966
572.626	33054.58
572.987	33029.95
573.349	33180
573.71	33254.58
574.071	33247.12
574.432	33488.92
574.794	33689.59
575.155	33677.84
575.516	33519.2
575.877	33606.21
576.238	33612.76
576.599	33642.59
576.96	33592.87
577.32	33543.38
577.681	33692.31
578.042	33968.46
578.403	33783.83
578.763	33705.41
579.124	33668.13
579.485	33977.5
579.845	33929.81
580.206	33811.4
580.566	33781.57
580.927	33960.32
581.287	34070.6
581.648	33849.14
582.008	33937.72
582.368	33994.22
582.728	33983.82
583.089	33975.91
583.449	33960.55
583.809	33858.63
584.169	33916.26
584.529	33787.9
584.889	34032.18
585.249	33810.27
585.609	33668.58
585.969	33890.95
586.329	33741.8
586.688	33835.35
587.048	33742.47
587.408	33646.21
587.768	33683.72
588.127	33697.5
588.487	33518.3
588.846	33771.85
589.206	33511.97
589.565	33556.26
589.925	33633.32
590.284	33542.48
590.643	33427.68
591.003	33558.07
591.362	33683.27
591.721	33546.55
592.08	33463.84
592.44	33702.93
592.799	33532.08
593.158	33503.38
593.517	33410.51
593.876	33455.48
594.235	33318.53
594.593	33193.56
594.952	33336.16
595.311	33243.5
595.67	33340.68
596.029	33483.95
596.387	33688.92
596.746	33536.15
597.104	33254.35
597.463	33311.07
597.822	33416.16
598.18	33202.38
598.538	33251.19
598.897	33459.54
599.255	33243.5
599.613	33624.74
599.972	33275.14
600.33	33383.16
600.688	33263.62
601.046	33421.13
601.404	33642.82
601.762	33520.56
602.12	33490.5
602.478	33479.2
602.836	33395.59
603.194	33320.56
603.552	33337.06
603.91	33262.26
604.268	33413.9
604.625	33373.67
604.983	33408.25
605.341	33099.1
605.698	33524.63
606.056	33627.9
606.413	33478.07
606.771	33592.65
607.128	33528.92
607.485	33473.1
607.843	33602.59
608.2	33603.49
608.557	33780.21
608.914	33723.72
609.272	33738.86
609.629	33964.39
609.986	33911.51
610.343	33883.71
610.7	34047.55
611.057	34055.01
611.414	33820.66
611.771	34174.78
612.127	34073.77
612.484	34236.25
612.841	34303.14
613.198	33978.85
613.554	33942.47
613.911	34199.64
614.267	34367.54
614.624	34257.26
614.98	34292.74
615.337	34539.97
615.693	34462.68
616.05	34389.46
616.406	34680.75
616.762	34625.39
617.118	34584.03
617.475	34692.51
617.831	34818.6
618.187	34918.94
618.543	34839.17
618.899	35160.74
619.255	34939.28
619.611	34829.9
619.967	35042.78
620.323	35059.95
620.678	34952.61
621.034	35005.04
621.39	35019.95
621.746	35047.07
622.101	35377.91
622.457	35001.2
622.812	35199.84
623.168	35330.68
623.523	35295.88
623.879	35401.41
624.234	35284.58
624.589	35390.57
624.945	35171.14
625.3	35262.21
625.655	35402.54
626.01	35357.12
626.365	35314.86
626.72	35185.37
627.075	35159.16
627.43	35316.67
627.785	35224.24
628.14	35384.69
628.495	35288.65
628.85	35400.74
629.205	35344.69
629.559	35384.24
629.914	35183.57
630.269	35297.69
630.623	35127.07
630.978	35077.13
631.332	35280.74
631.687	35263.56
632.041	35131.59
632.396	35140.4
632.75	35053.17
633.104	35147.18
633.459	34890.01
633.813	34953.74
634.167	34819.51
634.521	34885.95
634.875	34840.52
635.229	34872.61
635.583	34610.02
635.937	34658.38
636.291	34648.89
636.645	34704.71
636.999	34480.08
637.352	34671.26
637.706	34422.23
638.06	34506.07
638.413	34383.14
638.767	34339.97
639.121	34320.54
639.474	34128.23
639.828	34206.64
640.181	34203.03
640.534	34240.54
640.888	34192.63
641.241	33890.04
641.594	33966.88
641.947	34153.99
642.301	33923.03
642.654	34028.12
643.007	33884.84
643.36	33877.61
643.713	33946.54
644.066	33978.17
644.419	33782.7
644.771	33423.39
645.124	33071.31
645.477	33093.23
645.83	33067.24
646.182	33064.98
646.535	32913.8
646.888	33135.03
647.24	32974.36
647.593	33368.47
647.945	33043.06
648.298	33011.65
648.65	32756.96
649.002	32605.78
649.355	32457.08
649.707	32318.33
650.059	32371.44
650.411	32967.81
650.763	33143.17
651.115	33704.96
651.467	33465.42
651.819	33521.46
652.171	33384.74
652.523	33333.9
652.875	33323.05
653.227	33150.85
653.578	33579.54
653.93	33425.87
654.282	33329.15
654.633	33377.96
654.985	33353.33
655.337	33457.96
655.688	33450.5
656.039	33593.33
656.391	33091.42
656.742	33258.42
657.094	33400.11
657.445	33439.66
657.796	33450.5
658.147	33328.25
658.498	33564.63
658.849	33464.97
659.2	33460.22
659.551	33280.34
659.902	33542.71
660.253	33507.23
660.604	33525.76
660.955	33438.3
661.306	33590.16
661.656	33496.15
662.007	33604.62
662.358	33557.85
662.708	33629.93
663.059	33557.39
663.409	33344.74
663.76	33666.32
664.11	33659.99
664.461	33716.03
664.811	33656.6
665.161	33677.39
665.511	33603.04
665.862	33735.02
666.212	33789.93
666.562	33839.87
666.912	33716.94
667.262	33535.25
667.612	33631.06
667.962	33679.88
668.312	33693.44
668.662	33830.83
669.011	33782.7
669.361	33726.66
669.711	33626.55
670.06	33709.03
670.41	33666.77
670.76	33637.62
671.109	33755.58
671.459	33503.84
671.808	33603.04
672.157	33709.93
672.507	33412.99
672.856	33393.11
673.205	33521.69
673.554	33550.39
673.904	33377.96
674.253	33743.15
674.602	33541.58
674.951	33063.17
675.3	32800.8
675.649	33525.3
675.998	33515.36
676.346	33508.13
676.695	33427.91
677.044	33176.16
677.393	33316.04
677.741	33470.17
678.09	33268.81
678.438	33222.26
678.787	33323.73
679.135	33325.76
679.484	33022.95
679.832	33118.99
680.181	32986.56
680.529	33003.06
680.877	32989.05
681.225	32922.83
681.573	33067.24
681.922	32810.75
682.27	32780.24
682.618	32640.58
682.966	32612.33
683.314	32624.09
683.661	32594.93
684.009	32424.77
684.357	32350.87
684.705	32190.88
685.053	32239.01
685.4	32116.75
685.748	32036.53
686.095	31931
686.443	31831.34
686.79	31778.01
687.138	31874.73
687.485	31840.38
687.832	31696.43
688.18	31665.47
688.527	31384.57
688.874	31513.15
689.221	31391.58
689.568	31245.82
689.915	31156.33
690.262	31243.33
690.609	31001.98
690.956	30942.55
691.303	30895.32
691.65	30752.95
691.997	30665.95
692.344	30413.97
692.69	30301.89
693.037	30494.42
693.383	30233.87
693.73	30285.84
694.077	30192.29
694.423	30173.08
694.769	29916.13
695.116	29900.99
695.462	29774.22
695.808	29658.29
696.155	29686.99
696.501	29432.53
696.847	29476.6
697.193	29086.55
697.539	29251.29
697.885	28907.12
698.231	28804.75
698.577	28837.52
698.923	28906.67
699.269	28523.4
699.614	28435.72
699.96	28315.5
700.306	28423.97
700.651	28260.13
700.997	28091.1
701.342	28083.87
701.688	27931.55
702.033	27775.63
702.379	27721.16
702.724	27569.53
703.069	27663.09
703.415	27353.94
703.76	27343.09
704.105	27240.27
704.45	27298.12
704.795	27017.68
705.14	26929.32
705.485	26876.44
705.83	26637.58
706.175	26790.34
706.52	26632.83
706.865	26492.5
707.209	26458.37
707.554	26271.71
707.899	26252.73
708.243	26050.93
708.588	26061.77
708.932	25833.53
709.277	26006.86
709.621	25769.12
709.966	25648.68
710.31	25704.95
710.654	25522.8
710.998	25550.15
711.342	25716.7
711.687	25404.61
712.031	25413.65
712.375	25187.45
712.719	25159.42
713.063	25183.83
713.407	25284.62
713.75	25132.98
714.094	25234.9
714.438	25069.03
714.782	25056.15
715.125	24939.32
715.469	25125.3
715.812	24859.09
716.156	24915.59
716.499	24776.38
716.843	24897.51
717.186	24699.55
717.53	24841.24
717.873	24844.86
718.216	24802.37
718.559	24715.59
718.902	24395.15
719.246	24493.9
719.589	24514.92
719.932	24373.91
720.275	24422.95
720.617	24479.89
720.96	24405.09
721.303	24442.83
721.646	24380.23
721.989	24358.09
722.331	24378.88
722.674	24388.37
723.016	24260.24
723.359	24293.91
723.701	24359.67
724.044	24257.75
724.386	24147.92
724.729	24315.15
725.071	24273.34
725.413	24341.59
725.755	24319.9
726.097	24249.16
726.439	24184.99
726.782	24159.45
727.124	24269.96
727.465	24223.4
727.807	24144.31
728.149	24151.31
728.491	24111.32
728.833	24242.84
729.175	24143.63
729.516	24092.33
729.858	24144.99
730.199	24254.14
730.541	24148.15
730.882	24115.83
731.224	24338.43
731.565	24159
731.906	24316.96
732.248	24449.61
732.589	24221.37
732.93	24167.58
733.271	24267.47
733.612	24342.04
733.953	24449.61
734.294	24296.62
734.635	24361.25
734.976	24435.83
735.317	24340.69
735.658	24489.38
735.999	24414.13
736.339	24467.46
736.68	24600.34
737.021	24550.63
737.361	24358.77
737.702	24735.71
738.042	24689.61
738.383	24709.49
738.723	24812.54
739.063	24704.75
739.404	24878.75
739.744	24816.38
740.084	24782.03
740.424	24892.99
740.764	24951.52
741.104	25196.94
741.444	24996.26
741.784	24992.42
742.124	25272.19
742.464	25329.14
742.804	25331.4
743.143	25344.5
743.483	25587.89
743.823	25395.12
744.162	25596.25
744.502	25713.98
744.841	25636.47
745.181	26088.89
745.52	25885.51
745.86	26046.18
746.199	26043.02
746.538	26316.68
746.877	26445.04
747.216	26525.49
747.556	26596.67
747.895	26790.79
748.234	26728.2
748.573	26949.21
748.911	27108.52
749.25	27225.58
749.589	27290.67
749.928	27491.34
750.267	27687.27
750.605	27737.89
750.944	27770.65
751.283	27952.12
751.621	28164.99
751.96	28097.65
752.298	28324.54
752.636	28471.43
752.975	28607.24
753.313	28772.21
753.651	29065.08
753.989	29097.85
754.327	29334
754.666	29334
755.004	29667.55
755.342	29708.91
755.679	29894.89
756.017	29933.53
756.355	30249.01
756.693	30198.61
757.031	30493.75
757.368	30483.13
757.706	30695.77
758.044	30757.24
758.381	30997.46
758.719	31049.44
759.056	31190.9
759.394	31205.14
759.731	31306.15
760.068	31352.25
760.405	31505.25
760.743	31637.67
761.08	31772.36
761.417	31891.22
761.754	32054.61
762.091	31994.5
762.428	32134.83
762.765	32132.57
763.102	32315.39
763.438	32387.93
763.775	32202.4
764.112	32444.2
764.449	32568.27
764.785	32582.5
765.122	32589.74
765.458	32585.22
765.795	32541.83
766.131	32784.76
766.467	32820.46
766.804	32672.67
767.14	32649.4
767.476	32635.38
767.812	32752.9
768.148	32937.52
768.485	32808.26
768.821	32664.76
769.157	32707.47
769.492	32897.3
769.828	32775.49
770.164	32489.17
770.5	32541.83
770.836	32633.13
771.171	32760.35
771.507	32661.6
771.842	32559.91
772.178	32578.89
772.513	32612.33
772.849	32549.29
773.184	32531.88
773.519	32519.46
773.855	32402.85
774.19	32316.52
774.525	32320.59
774.86	32356.3
775.195	32247.37
775.53	32157.43
775.865	31999.7
776.2	32016.19
776.535	31765.35
776.87	31786.59
777.205	31802.86
777.539	31589.99
777.874	31727.16
778.209	31495.53
778.543	31519.03
778.878	31311.13
779.212	31280.39
779.547	31158.14
779.881	31204.46
780.215	30953.4
780.55	31004.24
780.884	30843.12
781.218	30797.24
781.552	30781.65
781.886	30776.9
782.22	30598.38
782.554	30352.96
782.888	30234.09
783.222	30192.96
783.556	30093.76
783.889	29998.39
784.223	29816.25
784.557	29884.72
784.89	29904.61
785.224	29664.39
785.557	29566.99
785.891	29498.74
786.224	29515.69
786.558	29412.42
786.891	29283.38
787.224	29138.08
787.557	29029.83
787.891	29053.33
788.224	28809.27
788.557	28870.74
788.89	28806.56
789.223	28775.37
789.556	28495.83
789.888	28543.52
790.221	28492.22
790.554	28280.25
790.887	28412.9
791.219	28141.72
791.552	28071.66
791.884	28007.03
792.217	28058.1
792.549	27903.31
792.882	27624.9
793.214	27736.98
793.546	27671
793.879	27454.05
794.211	27252.25
794.543	27479.14
794.875	27252.7
795.207	27332.93
795.539	27263.55
795.871	27277.33
796.203	27154.85
796.535	26914.86
796.867	26893.39
797.198	26772.04
797.53	26728.87
797.862	26577.69
798.193	26590.8
798.525	26511.93
798.856	26593.28
799.188	26209.79
799.519	26111.71
799.85	26187.87
800.182	26094.31
800.513	26293.18
800.844	25753.76
801.175	26015.45
801.506	25958.72
801.837	25720.99
802.168	25725.51
802.499	25706.08
802.83	25622.69
803.161	25495.91
803.491	25495.23
803.822	25445.74
804.153	25194.45
804.483	25159.88
804.814	24990.16
805.145	25123.04
805.475	25036.49
805.805	24938.41
806.136	24964.4
806.466	24853.44
806.796	24832.88
807.126	24809.6
807.457	24695.93
807.787	24587.46
808.117	24583.39
808.447	24488.48
808.777	24598.53
809.107	24336.62
809.436	24314.93
809.766	24250.52
810.096	24244.87
810.426	24183.63
810.755	24169.39
811.085	23977.76
811.414	24102.73
811.744	24040.36
812.073	23879.46
812.403	23787.26
812.732	23650.76
813.061	23892.79
813.39	23708.16
813.719	23634.04
814.049	23740.93
814.378	23520.82
814.707	23429.98
815.036	23521.5
815.365	23371.22
815.693	23422.52
816.022	23313.82
816.351	23214.16
816.68	23089.87
817.008	23207.38
817.337	23059.14
817.665	23016.43
817.994	22989.31
818.322	22947.96
818.651	22890.1
818.979	22794.97
819.307	22857.34
819.636	22856.21
819.964	22786.15
820.292	22855.98
820.62	22711.13
820.948	22741.41
821.276	22871.57
821.604	22792.71
821.932	22869.54
822.259	22844.23
822.587	22739.15
822.915	22633.61
823.243	22703.67
823.57	22612.37
823.898	22785.7
824.225	22700.96
824.553	22665.03
824.88	22690.56
825.207	22800.84
825.535	22713.84
825.862	22717.23
826.189	22756.77
826.516	22865.92
826.843	22822.76
827.17	22941.85
827.497	22882.87
827.824	22786.6
828.151	22968.75
828.478	22762.42
828.805	22910.22
829.131	22726.27
829.458	22884
829.785	22605.14
830.111	22750.9
830.438	22925.36
830.764	22835.19
831.09	22779.6
831.417	22771.69
831.743	22975.3
832.069	22830.22
832.395	22701.63
832.722	22793.38
833.048	22708.41
833.374	22837
833.7	22666.16
834.026	22828.41
834.351	22728.07
834.677	22824.34
835.003	22662.31
835.329	22771.92
835.654	22696.89
835.98	22538.7
836.306	22648.53
836.631	22526.72
836.956	22699.83
837.282	22696.89
837.607	22534.63
837.932	22540.74
838.258	22542.77
838.583	22535.31
838.908	22350.01
839.233	22459.38
839.558	22397.91
839.883	22402.21
840.208	22226.39
840.533	22247.64
840.858	22271.14
841.182	22293.28
841.507	22228.43
841.832	22091.48
842.156	22224.59
842.481	22048.09
842.805	22001.99
843.13	22031.14
843.454	21982.11
843.778	21941.2
844.103	21846.74
844.427	21769.23
844.751	21786.18
845.075	21746.18
845.399	21618.27
845.723	21587.77
846.047	21590.25
846.371	21450.37
846.695	21327.66
847.019	21311.61
847.343	21177.38
847.666	21051.28
847.99	21045.63
848.313	20892.42
848.637	20812.64
848.96	20941.91
849.284	20837.73
849.607	20687.22
849.931	20619.88
850.254	20578.3
850.577	20288.14
850.9	20197.52
851.223	20171.53
851.546	20095.6
851.869	20042.72
852.192	20127.01
852.515	19913.91
852.838	19814.48
853.161	19838.89
853.483	19771.77
853.806	19625.33
854.129	19467.6
854.451	19610.19
854.774	19381.72
855.096	19344.21
855.419	19303.98
855.741	19312.8
856.063	19228.96
856.385	18990.09
856.708	19041.84
857.03	19046.82
857.352	19049.3
857.674	18977.44
857.996	18822.19
858.318	18653.83
858.64	18780.38
858.961	18715.07
859.283	18662.64
859.605	18638.92
859.926	18605.02
860.248	18529.77
860.57	18415.42
860.891	18418.13
861.212	18303.78
861.534	18329.09
861.855	18300.85
862.176	18262.43
862.498	18235.09
862.819	18290.23
863.14	18199.61
863.461	18102.21
863.782	18006.84
864.103	18065.82
864.424	17934.3
864.745	17964.81
865.065	17991.7
865.386	17764.36
865.707	17797.81
866.027	17892.72
866.348	17755.55
866.668	17841.2
866.989	17651.6
867.309	17611.6
867.63	17658.83
867.95	17715.78
868.27	17562.33
868.59	17683.01
868.91	17642.11
869.23	17548.55
869.55	17423.13
869.87	17501.09
870.19	17464.26
870.51	17463.81
870.83	17454.77
871.15	17394.2
871.469	17378.16
871.789	17441.21
872.109	17386.97
872.428	17332.28
872.748	17339.74
873.067	17247.77
873.386	17324.37
873.706	17138.39
874.025	17023.82
874.344	17090.71
874.663	17107.43
874.982	17040.31
875.301	17052.52
875.62	16959.19
875.939	16930.94
876.258	16975.46
876.577	16818.85
876.896	16923.26
877.214	16891.84
877.533	16840.09
877.852	16853.88
878.17	16828.34
878.489	16894.1
878.807	16802.58
879.125	16762.81
879.444	16663.15
879.762	16650.95
880.08	16580.21
880.398	16571.4
880.716	16527.11
881.034	16497.73
881.352	16565.3
881.67	16391.97
881.988	16381.57
882.306	16422.25
882.624	16350.16
882.941	16337.06
883.259	16298.41
883.577	16281.69
883.894	16227.68
884.212	16151.3
884.529	16137.29
884.846	16056.16
885.164	16017.74
885.481	15963.96
885.798	16029.49
886.115	15863.85
886.432	15994.47
886.75	15892.1
887.067	15897.75
887.383	15760.35
887.7	15750.86
888.017	15646.68
888.334	15609.17
888.651	15577.75
888.967	15622.95
889.284	15568.94
889.6	15530.98
889.917	15489.85
890.233	15420.92
890.55	15487.59
890.866	15415.95
891.182	15316.29
891.498	15328.5
891.815	15206.46
892.131	15156.3
892.447	15127.82
892.763	15007.37
893.079	14985
893.395	14936.64
893.71	14945.45
894.026	14940.03
894.342	14841.5
894.657	14799.7
894.973	14730.54
895.289	14818.68
895.604	14693.26
895.92	14577.33
896.235	14533.71
896.55	14514.51
896.865	14401.97
897.181	14472.92
897.496	14425.69
897.811	14283.1
898.126	14282.2
898.441	14212.82
898.756	14151.58
899.071	14085.82
899.386	14096.66
899.7	14022.77
900.015	13931.7
900.33	13877.91
900.644	13814.64
900.959	13883.11
901.273	13770.57
901.588	13742.1
901.902	13718.59
902.216	13593.4
902.531	13578.03
902.845	13501.42
903.159	13440.18
903.473	13370.58
903.787	13297.14
904.101	13265.72
904.415	13312.73
904.729	13153.41
905.042	13121.32
905.356	13103.7
905.67	13054.43
905.984	13080.42
906.297	13002.91
906.611	12914.77
906.924	12930.14
907.237	12913.87
907.551	12818.28
907.864	12697.15
908.177	12685.4
908.491	12667.77
908.804	12550.04
909.117	12474.11
909.43	12352.98
909.743	12391.17
910.056	12365.18
910.368	12296.48
910.681	12294.22
910.994	12224.17
911.307	12139.65
911.619	12087.68
911.932	12138.97
912.244	11974.91
912.557	11970.17
912.869	11898.98
913.181	11874.8
913.494	11843.16
913.806	11739.44
914.118	11758.65
914.43	11648.59
914.742	11715.48
915.054	11577.18
915.366	11499.67
915.678	11479.56
915.99	11456.51
916.302	11348.03
916.613	11334.48
916.925	11338.32
917.236	11314.36
917.548	11224.2
917.859	11235.27
918.171	11063.07
918.482	11046.35
918.794	11001.38
919.105	10987.82
919.416	10910.31
919.727	10833.92
920.038	10865.79
920.349	10698.79
920.66	10758.45
920.971	10760.71
921.282	10637.55
921.593	10565
921.903	10510.54
922.214	10507.38
922.525	10489.98
922.835	10404.1
923.146	10362.75
923.456	10316.42
923.767	10310.32
924.077	10176.09
924.387	10217.44
924.697	10177.67
925.008	10108.97
925.318	10030.1
925.628	10049.09
925.938	10001.63
926.248	9885.7
926.558	9910.78
926.867	9874.85
927.177	9867.62
927.487	9777.68
927.796	9650.45
928.106	9761.18
928.416	9619.94
928.725	9702.43
929.034	9529.55
929.344	9624.92
929.653	9501.76
929.962	9445.49
930.271	9423.79
930.581	9401.87
930.89	9316.22
931.199	9333.4
931.508	9254.98
931.817	9216.11
932.125	9257.69
932.434	9167.3
932.743	9132.5
933.051	9067.42
933.36	9026.51
933.669	8986.97
933.977	8911.26
934.286	8849.12
934.594	8925.05
934.902	8825.16
935.21	8780.64
935.519	8847.08
935.827	8835.56
936.135	8696.13
936.443	8673.53
936.751	8629.69
937.059	8555.11
937.367	8561.89
937.674	8536.58
937.982	8471.5
938.29	8499.52
938.597	8428.34
938.905	8369.58
939.213	8317.38
939.52	8246.87
939.827	8319.64
940.135	8238.06
940.442	8175.91
940.749	8149.02
941.056	8199.19
941.363	8071.51
941.67	8072.64
941.977	7971.85
942.284	7957.39
942.591	7997.39
942.898	7888.01
943.205	7917.39
943.511	7874.68
943.818	7825.64
944.125	7777.28
944.431	7702.26
944.738	7705.42
945.044	7615.48
945.35	7597.17
945.657	7579.55
945.963	7596.5
946.269	7481.47
946.575	7453.9
946.881	7431.3
947.187	7386.33
947.493	7375.71
947.799	7386.78
948.105	7258.88
948.41	7248.93
948.716	7251.65
949.022	7245.09
949.327	7201.25
949.633	7095.04
949.938	7171.87
950.244	7139.78
950.549	7055.94
950.854	6996.28
951.16	7019.11
951.465	6985.44
951.77	6977.3
952.075	6911.54
952.38	6874.03
952.685	6838.55
952.99	6861.6
953.294	6785.67
953.599	6770.98
953.904	6704.54
954.209	6669.51
954.513	6681.04
954.818	6625.67
955.122	6649.85
955.426	6613.92
955.731	6534.6
956.035	6536.86
956.339	6507.94
956.643	6490.08
956.948	6443.98
957.252	6424.32
957.556	6379.13
957.86	6372.12
958.163	6327.38
958.467	6295.74
958.771	6281.28
959.075	6220.94
959.378	6233.37
959.682	6202.41
959.985	6203.31
960.289	6129.64
960.592	6124.22
960.896	6103.65
961.199	6061.62
961.502	6038.8
961.805	5983.66
962.108	5974.16
962.411	5952.47
962.714	5907.05
963.017	5867.05
963.32	5914.51
963.623	5860.27
963.926	5854.62
964.228	5763.1
964.531	5762.42
964.833	5757.22
965.136	5704.34
965.438	5709.09
965.741	5670.44
966.043	5647.17
966.345	5550.22
966.648	5585.25
966.95	5537.57
967.252	5538.7
967.554	5492.37
967.856	5466.16
968.158	5476.78
968.46	5435.42
968.761	5393.84
969.063	5413.5
969.365	5305.71
969.666	5349.77
969.968	5303.67
970.269	5269.55
970.571	5268.19
970.872	5295.99
971.174	5254.18
971.475	5184.13
971.776	5185.71
972.077	5116.56
972.378	5147.75
972.679	5122.66
972.98	5097.35
973.281	5065.71
973.582	5068.88
973.883	5024.59
974.183	5020.07
974.484	4986.85
974.785	4952.95
975.085	4952.04
975.386	4905.94
975.686	4874.76
975.986	4861.65
976.287	4859.17
976.587	4839.05
976.887	4800.18
977.187	4761.54
977.487	4782.11
977.787	4762.67
978.087	4712.05
978.387	4714.76
978.687	4674.31
978.987	4638.61
979.286	4632.73
979.586	4592.51
979.885	4560.42
980.185	4569.23
980.484	4523.13
980.784	4523.13
981.083	4433.41
981.382	4462.79
981.682	4474.09
981.981	4454.43
982.28	4397.48
982.579	4401.1
982.878	4354.32
983.177	4318.39
983.475	4423.25
983.774	4290.37
984.073	4304.38
984.372	4309.8
984.67	4255.34
984.969	4252.85
985.267	4251.27
985.566	4196.58
985.864	4201.56
986.162	4193.19
986.461	4129.92
986.759	4129.24
987.057	4040.66
987.355	4085.85
987.653	4079.98
987.951	4021.22
988.249	4044.72
988.547	4013.54
988.844	4026.65
989.142	3976.03
989.44	3938.96
989.737	3935.57
990.035	3894.45
990.332	3870.72
990.63	3898.97
990.927	3912.07
991.224	3854.9
991.521	3854.67
991.819	3833.66
992.116	3756.6
992.413	3761.34
992.71	3781.68
993.006	3752.3
993.303	3696.03
993.6	3734.68
993.897	3706.65
994.193	3694.68
994.49	3618.75
994.787	3665.75
995.083	3609.71
995.379	3581.69
995.676	3561.8
995.972	3522.48
996.268	3552.99
996.565	3512.76
996.861	3492.65
997.157	3428.02
997.453	3432.08
997.749	3452.88
998.044	3414.91
998.34	3362.71
998.636	3359.09
998.932	3352.76
999.227	3330.39
999.523	3298.08
999.818	3328.36
1000.114	3309.15
1000.409	3262.6
1000.704	3281.58
1001	3233.9
1001.295	3203.16
1001.59	3195.25
1001.885	3191.64
1002.18	3130.62
1002.475	3154.13
1002.77	3168.81
1003.065	3135.82
1003.359	3121.13
1003.654	3069.83
1003.949	3033.23
1004.243	3068.7
1004.538	3004.53
1004.832	3007.46
1005.127	2960.46
1005.421	3007.46
1005.715	2964.07
1006.009	2985.99
1006.304	2934.92
1006.598	2896.96
1006.892	2868.26
1007.186	2855.15
1007.48	2845.66
1007.773	2802.27
1008.067	2804.76
1008.361	2789.16
1008.655	2819.45
1008.948	2755.04
1009.242	2742.61
1009.535	2731.76
1009.829	2715.72
1010.122	2681.82
1010.415	2695.83
1010.708	2676.85
1011.001	2627.81
1011.295	2665.55
1011.588	2647.7
1011.881	2597.98
1012.173	2617.64
1012.466	2590.3
1012.759	2541.03
1013.052	2519.34
1013.344	2529.74
1013.637	2521.6
1013.93	2454.71
1014.222	2459.91
1014.514	2476.4
1014.807	2435.5
1015.099	2403.41
1015.391	2412.45
1015.683	2399.34
1015.976	2383.52
1016.268	2346.92
1016.56	2343.53
1016.851	2337.2
1017.143	2319.35
1017.435	2310.98
1017.727	2280.02
1018.018	2277.99
1018.31	2236.64
1018.602	2268.73
1018.893	2250.65
1019.185	2222.17
1019.476	2182.63
1019.767	2143.98
1020.058	2165.68
1020.35	2157.99
1020.641	2133.36
1020.932	2113.7
1021.223	2117.09
1021.514	2107.37
1021.804	2089.07
1022.095	2072.12
1022.386	2037.32
1022.677	2039.58
1022.967	2012.24
1023.258	1995.96
1023.548	2004.78
1023.839	1990.31
1024.129	1939.92
1024.419	1967.04
1024.709	1940.37
1025	1941.95
1025.29	1909.19
1025.58	1883.65
1025.87	1898.34
1026.16	1885.91
1026.449	1897.66
1026.739	1876.65
1027.029	1848.17
1027.319	1849.75
1027.608	1837.32
1027.898	1832.8
1028.187	1780.38
1028.477	1784.9
1028.766	1768.4
1029.055	1751.9
1029.344	1723.43
1029.634	1696.31
1029.923	1716.42
1030.212	1736.99
1030.501	1706.93
1030.79	1660.61
1031.078	1673.71
1031.367	1624.9
1031.656	1654.5
1031.945	1619.93
1032.233	1589.2
1032.522	1602.75
1032.81	1597.56
1033.099	1588.52
1033.387	1599.59
1033.675	1550.1
1033.963	1553.26
1034.251	1536.54
1034.54	1533.15
1034.828	1532.93
1035.116	1498.35
1035.403	1494.51
1035.691	1476.43
1035.979	1499.25
1036.267	1456.77
1036.554	1443.89
1036.842	1440.05
1037.129	1441.4
1037.417	1437.11
1037.704	1431.91
1037.992	1408.41
1038.279	1412.7
1038.566	1369.77
1038.853	1369.77
1039.14	1369.77
