Data from 7737_FLMS001491_001.txt Node
Date: Thu Apr 19 15:40:56 BST 2018
User: hsy
Spectrometer: FLMS00149
Trigger mode: 0
Integration Time (sec): 1.000000E-2
Scans to average: 10
Electric dark correction enabled: true
Nonlinearity correction enabled: false
Boxcar width: 0
XAxis mode: Wavelengths
Number of Pixels in Spectrum: 2048
>>>>>Begin Spectral Data<<<<<
341.393	-12.78
341.776	-12.78
342.16	-12.78
342.543	-70.63
342.927	-68.6
343.31	-65.89
343.693	-72.22
344.077	-79.45
344.46	-72.22
344.843	-59.79
345.226	-54.36
345.61	-25.66
345.993	-16.62
346.376	-2.61
346.759	9.14
347.142	38.06
347.525	48.69
347.908	59.53
348.291	72.41
348.674	99.53
349.057	121.45
349.44	130.04
349.823	164.16
350.206	168.46
350.588	228.34
350.971	267.21
351.354	259.08
351.737	257.49
352.119	293.65
352.502	299.3
352.884	319.19
353.267	323.48
353.65	319.41
354.032	348.11
354.414	327.1
354.797	342.46
355.179	360.32
355.562	358.96
355.944	379.07
356.326	350.6
356.709	386.53
357.091	382.69
357.473	410.03
357.855	367.32
358.238	405.96
358.62	373.42
359.002	395.79
359.384	381.56
359.766	389.47
360.148	399.41
360.53	381.33
360.912	387.89
361.294	374.1
361.676	372.07
362.057	356.93
362.439	388.34
362.821	366.19
363.203	377.04
363.584	358.96
363.966	370.94
364.348	382.91
364.729	360.09
365.111	363.03
365.493	361.22
365.874	357.38
366.256	373.2
366.637	375
367.019	352.18
367.4	365.74
367.781	375.68
368.163	388.11
368.544	382.01
368.925	365.06
369.306	384.5
369.688	372.52
370.069	380.88
370.45	381.33
370.831	393.08
371.212	396.47
371.593	379.07
371.974	371.61
372.355	386.76
372.736	384.72
373.117	380.43
373.498	386.3
373.879	378.39
374.26	364.38
374.641	373.2
375.021	385.4
375.402	387.66
375.783	396.7
376.163	395.79
376.544	411.61
376.925	376.59
377.305	389.47
377.686	391.95
378.066	396.02
378.447	418.62
378.827	404.61
379.208	433.31
379.588	401.67
379.968	429.92
380.349	429.69
380.729	417.04
381.109	439.64
381.489	432.4
381.87	431.73
382.25	419.52
382.63	404.38
383.01	437.15
383.39	428.34
383.77	402.57
384.15	447.09
384.53	465.62
384.91	427.66
385.29	451.39
385.67	454.78
386.049	472.63
386.429	453.87
386.809	473.53
387.189	458.39
387.568	470.37
387.948	486.19
388.328	482.8
388.707	480.54
389.087	475.57
389.466	495.68
389.846	490.48
390.225	492.97
390.605	497.03
390.984	497.71
391.363	493.19
391.743	510.14
392.122	514.44
392.501	523.93
392.881	523.25
393.26	516.47
393.639	506.07
394.018	520.76
394.397	521.44
394.776	549.91
395.155	544.94
395.534	537.71
395.913	555.34
396.292	551.95
396.671	557.37
397.05	540.42
397.429	574.32
397.808	541.78
398.186	573.64
398.565	570.71
398.944	550.59
399.323	581.33
399.701	580.2
400.08	580.87
400.458	583.59
400.837	578.61
401.215	588.56
401.594	596.47
401.972	608.67
402.351	608.22
402.729	594.89
403.107	617.48
403.486	619.52
403.864	602.57
404.242	616.58
404.62	638.95
404.999	645.28
405.377	634.66
405.755	633.08
406.133	674.21
406.511	648.9
406.889	661.78
407.267	666.52
407.645	701.55
408.023	699.29
408.401	686.18
408.779	714.66
409.156	702.23
409.534	690.25
409.912	724.37
410.29	718.05
410.667	737.03
411.045	748.33
411.422	738.84
411.8	753.53
412.178	748.55
412.555	780.19
412.933	783.36
413.31	793.07
413.687	782.45
414.065	810.93
414.442	816.8
414.819	813.41
415.197	827.42
415.574	832.17
415.951	844.14
416.328	829.46
416.705	838.72
417.082	834.88
417.46	893.41
417.837	842.56
418.214	868.55
418.591	871.94
418.967	862.22
419.344	893.18
419.721	896.8
420.098	894.76
420.475	899.28
420.852	900.19
421.228	941.09
421.605	922.33
421.982	941.09
422.358	971.82
422.735	953.07
423.111	965.72
423.488	965.72
423.864	975.89
424.241	973.18
424.617	990.13
424.994	987.87
425.37	989.23
425.746	1016.34
426.123	1011.82
426.499	1048.43
426.875	1030.81
427.251	1046.63
427.627	1057.92
428.003	1076.23
428.379	1100.18
428.756	1093.63
429.132	1113.97
429.507	1119.84
429.883	1141.31
430.259	1163.68
430.635	1158.49
431.011	1189.22
431.387	1189.9
431.763	1201.65
432.138	1198.94
432.514	1203.46
432.89	1226.73
433.265	1265.83
433.641	1247.75
434.016	1282.78
434.392	1294.98
434.767	1302.66
435.143	1324.36
435.518	1314.87
435.894	1337.01
436.269	1330.46
436.644	1367.97
437.02	1404.36
437.395	1372.49
437.77	1405.94
438.145	1385.6
438.52	1435.54
438.895	1438.03
439.271	1427.86
439.646	1455.43
440.021	1460.63
440.395	1483.68
440.77	1475.31
441.145	1485.48
441.52	1520.51
441.895	1493.39
442.27	1523.22
442.645	1532.94
443.019	1525.26
443.394	1552.6
443.769	1533.62
444.143	1564.35
444.518	1558.7
444.892	1578.59
445.267	1608.64
445.641	1581.98
446.016	1603.22
446.39	1617.46
446.764	1642.77
447.139	1605.48
447.513	1654.07
447.887	1642.99
448.262	1661.98
448.636	1679.38
449.01	1706.72
449.384	1717.57
449.758	1712.82
450.132	1751.92
450.506	1763.44
450.88	1762.09
451.254	1754.85
451.628	1796.21
452.002	1833.95
452.376	1852.03
452.75	1852.93
453.123	1845.7
453.497	1892.48
453.871	1896.77
454.244	1946.49
454.618	1969.09
454.992	1979.03
455.365	1974.74
455.739	2043.43
456.112	2030.1
456.486	2058.35
456.859	2095.41
457.232	2139.25
457.606	2165.92
457.979	2170.44
458.352	2228.29
458.725	2233.94
459.099	2256.31
459.472	2294.5
459.845	2325.24
460.218	2339.92
460.591	2380.15
460.964	2391.67
461.337	2400.04
461.71	2441.84
462.083	2492.69
462.456	2494.5
462.829	2519.13
463.201	2564.1
463.574	2541.73
463.947	2604.1
464.32	2606.58
464.692	2692.46
465.065	2692.01
465.438	2695.4
465.81	2730.87
466.183	2752.12
466.555	2814.94
466.928	2826.92
467.3	2881.38
467.672	2870.31
468.045	2962.28
468.417	2952.34
468.789	2971.55
469.161	3029.17
469.534	3063.07
469.906	3103.07
470.278	3147.36
470.65	3192.78
471.022	3252.89
471.394	3286.79
471.766	3352.55
472.138	3388.94
472.51	3426.9
472.882	3530.63
473.253	3518.42
473.625	3552.32
473.997	3643.84
474.369	3666.9
474.74	3702.83
475.112	3823.05
475.484	3849.04
475.855	3875.93
476.227	3984.85
476.598	4055.13
476.97	4096.26
477.341	4163.61
477.713	4201.12
478.084	4278.86
478.455	4400.21
478.827	4442.02
479.198	4552.52
479.569	4600.43
479.94	4675.91
480.311	4775.57
480.682	4876.35
481.053	5009.23
481.424	5053.75
481.795	5126.97
482.166	5206.97
482.537	5325.38
482.908	5399.28
483.279	5472.72
483.65	5624.81
484.021	5772.15
484.391	5858.02
484.762	5908.19
485.133	6017.79
485.503	6136.21
485.874	6248.07
486.244	6329.88
486.615	6502.3
486.985	6633.14
487.356	6690.32
487.726	6811.67
488.097	7009.86
488.467	7135.96
488.837	7246.24
489.207	7373.24
489.578	7595.15
489.948	7746.11
490.318	7856.84
490.688	7964.18
491.058	8142.94
491.428	8267.9
491.798	8358.07
492.168	8661.57
492.538	8783.37
492.908	8911.05
493.278	9150.82
493.648	9193.3
494.017	9388.78
494.387	9576.57
494.757	9728.66
495.126	9914.41
495.496	10065.6
495.866	10191.24
496.235	10431.24
496.605	10605.92
496.974	10757.1
497.344	11030.32
497.713	11221.05
498.082	11324.55
498.452	11559.12
498.821	11772.67
499.19	11931.54
499.559	12097.18
499.928	12363.39
500.298	12525.65
500.667	12761.12
501.036	12928.8
501.405	13138.51
501.774	13377.37
502.143	13612.85
502.512	13881.77
502.88	14056.9
503.249	14260.51
503.618	14542.99
503.987	14734.85
504.356	14865.92
504.724	15227.04
505.093	15332.58
505.462	15575.06
505.83	15856.86
506.199	16029.28
506.567	16373
506.936	16505.65
507.304	16869.71
507.672	16994.68
508.041	17216.82
508.409	17533.42
508.777	17798.95
509.145	18115.33
509.514	18251.37
509.882	18339.73
510.25	18643.45
510.618	18951.69
510.986	19060.16
511.354	19335.18
511.722	19708.06
512.09	19929.07
512.458	19938.78
512.826	20213.13
513.193	20460.8
513.561	20658.54
513.929	20818.76
514.297	21031.18
514.664	21284.74
515.032	21449.7
515.4	21738.51
515.767	21860.09
516.135	22042.68
516.502	22048.56
516.869	22428.21
517.237	22639.96
517.604	22576.91
517.972	23044.24
518.339	23128.3
518.706	23280.16
519.073	23374.4
519.44	23671.57
519.808	23858.23
520.175	24052.12
520.542	24226.58
520.909	24467.03
521.276	24473.81
521.643	24947.47
522.009	24827.92
522.376	25194.92
522.743	25408.47
523.11	25616.15
523.477	25873.77
523.843	25957.38
524.21	26303.14
524.577	26434.66
524.943	26557.59
525.31	26768.43
525.676	27031.7
526.043	27141.98
526.409	27252.04
526.776	27649.54
527.142	27654.29
527.508	27890.89
527.874	28072.13
528.241	28160.04
528.607	28244.33
528.973	28516.86
529.339	28587.82
529.705	28877.98
530.071	29016.51
530.437	29148.48
530.803	29322.27
531.169	29503.05
531.535	29367.91
531.901	29613.56
532.267	29678.41
532.632	29857.84
532.998	29894
533.364	29990.5
533.73	30165.63
534.095	30328.79
534.461	30348.68
534.826	30488.34
535.192	30384.61
535.557	30753.87
535.923	30636.13
536.288	30857.14
536.653	30961.54
537.019	30749.57
537.384	30757.48
537.749	30857.59
538.114	30932.84
538.479	30927.42
538.845	31037.93
539.21	31037.7
539.575	31218.49
539.94	31066.63
540.305	31255.32
540.67	31243.57
541.034	31306.17
541.399	31310.69
541.764	31342.1
542.129	31357.47
542.494	31416.45
542.858	31537.8
543.223	31371.7
543.587	31420.97
543.952	31387.75
544.316	31454.41
544.681	31411.48
545.045	31560.85
545.41	31726.04
545.774	31465.03
546.138	31450.35
546.503	31402.21
546.867	31531.93
547.231	31608.31
547.595	31777.79
547.959	31663.67
548.324	31681.3
548.688	31646.95
549.052	31732.15
549.416	31579.61
549.779	31650.79
550.143	31727.85
550.507	31931.46
550.871	31793.16
551.235	31782.54
551.599	32120.38
551.962	31870
552.326	32092.36
552.689	32023.66
553.053	31800.84
553.417	32031.35
553.78	32365.12
554.143	32240.83
554.507	32245.8
554.87	32282.64
555.234	32419.81
555.597	32213.49
555.96	32266.6
556.323	32370.55
556.686	32268.4
557.05	32549.53
557.413	32446.7
557.776	32575.29
558.139	32672.91
558.502	32713.59
558.865	32754.49
559.228	32857.99
559.59	32935.28
559.953	32904.54
560.316	33180.02
560.679	33039.23
561.041	33216.85
561.404	33317.64
561.767	33531.65
562.129	33393.35
562.492	33663.62
562.854	33635.15
563.217	33705.43
563.579	33648.71
563.941	33875.14
564.304	33950.84
564.666	34102.93
565.028	34031.75
565.39	34102.48
565.753	34210.27
566.115	34322.36
566.477	34444.16
566.839	34386.77
567.201	34666.98
567.563	34734.33
567.925	34745.85
568.287	34743.82
568.648	35047.31
569.01	35048.67
569.372	35271.26
569.734	35222.45
570.095	35320.07
570.457	35548.32
570.819	35566.17
571.18	35350.81
571.542	35729.33
571.903	35563.46
572.265	35753.28
572.626	35919.61
572.987	35827.63
573.349	35916.67
573.71	36112.37
574.071	36204.34
574.432	36306.49
574.794	36346.04
575.155	36358.24
575.516	36254.51
575.877	36464.9
576.238	36412.7
576.599	36506.94
576.96	36637.33
577.32	36720.49
577.681	36665.12
578.042	36813.82
578.403	36730.43
578.763	36590.55
579.124	36818.11
579.485	36935.85
579.845	36967.71
580.206	36916.87
580.566	36731.79
580.927	36735.63
581.287	36896.98
581.648	36775.4
582.008	36910.99
582.368	36697.67
582.728	36852.92
583.089	36739.7
583.449	36687.95
583.809	36789.19
584.169	36836.42
584.529	36718
584.889	36905.57
585.249	36719.13
585.609	36412.7
585.969	36775.86
586.329	36516.65
586.688	36534.73
587.048	36633.49
587.408	36473.04
587.768	36406.15
588.127	36425.58
588.487	36359.59
588.846	36617.67
589.206	36264.91
589.565	36297.68
589.925	36454.28
590.284	36483.66
590.643	36457.67
591.003	36226.94
591.362	36460.84
591.721	36219.26
592.08	36240.95
592.44	36468.97
592.799	36264.23
593.158	36056.78
593.517	36107.4
593.876	36177.68
594.235	36174.51
594.593	36073.27
594.952	36060.17
595.311	35963.22
595.67	36003.9
596.029	36176.77
596.387	36198.02
596.746	36245.93
597.104	36012.49
597.463	36017.68
597.822	36300.39
598.18	35939.49
598.538	35978.81
598.897	36179.03
599.255	35954.63
599.613	36316.66
599.972	36084.57
600.33	36134.74
600.688	36044.57
601.046	36147.62
601.404	36362.98
601.762	36180.62
602.12	36247.51
602.478	36222.65
602.836	36250.45
603.194	36026.04
603.552	36124.57
603.91	36188.53
604.268	36128.64
604.625	36256.09
604.983	36426.94
605.341	36159.6
605.698	36281.4
606.056	36400.72
606.413	36179.03
606.771	36448.18
607.128	36385.36
607.485	36388.07
607.843	36388.75
608.2	36627.16
608.557	36513.04
608.914	36451.8
609.272	36710.09
609.629	36874.16
609.986	36884.55
610.343	36636.2
610.7	37031.22
611.057	36791.9
611.414	36868.28
611.771	36969.07
612.127	37027.37
612.484	37090.2
612.841	37103.98
613.198	36954.38
613.554	37072.57
613.911	37501.94
614.267	37173.81
614.624	37330.19
614.98	37314.82
615.337	37541.48
615.693	37569.96
616.05	37441.37
616.406	37671.65
616.762	37540.13
617.118	37589.39
617.475	37601.82
617.831	37816.28
618.187	37880.01
618.543	37680.24
618.899	38061.92
619.255	37978.08
619.611	37959.1
619.967	38113.9
620.323	38211.98
620.678	38022.83
621.034	38064.86
621.39	37941.25
621.746	37949.16
622.101	38466.66
622.457	37984.64
622.812	38113.9
623.168	38281.35
623.523	38271.41
623.879	38288.81
624.234	38023.96
624.589	38185.76
624.945	38206.33
625.3	38203.61
625.655	38416.26
626.01	38197.06
626.365	38368.58
626.72	38174.24
627.075	38169.49
627.43	38254.91
627.785	38315.02
628.14	38210.39
628.495	38234.12
628.85	38278.64
629.205	38176.27
629.559	38425.76
629.914	38219.66
630.269	38207.46
630.623	38056.73
630.978	37933.56
631.332	38079.78
631.687	38170.39
632.041	37900.35
632.396	38018.76
632.75	37966.33
633.104	37974.92
633.459	37736.51
633.813	37887.24
634.167	37873
634.521	37762.95
634.875	37712.1
635.229	37713.23
635.583	37587.13
635.937	37629.62
636.291	37555.27
636.645	37496.74
636.999	37458.32
637.352	37435.05
637.706	37249.06
638.06	37400.7
638.413	37236.86
638.767	37127.71
639.121	37288.84
639.474	37056.98
639.828	37073.7
640.181	37092.91
640.534	37004.1
640.888	36962.29
641.241	36788.96
641.594	36748.06
641.947	36999.13
642.301	36838.68
642.654	36793.03
643.007	36774.5
643.36	36905.34
643.713	36798.91
644.066	36949.86
644.419	36654.5
644.771	36307.39
645.124	35994.63
645.477	35928.65
645.83	35821.76
646.182	36061.3
646.535	35752.15
646.888	36002.09
647.24	35825.6
647.593	36097.91
647.945	35811.36
648.298	35692.72
648.65	35594.87
649.002	35320.53
649.355	35235.1
649.707	35085.96
650.059	35210.02
650.411	35728.2
650.763	35860.4
651.115	36509.65
651.467	36289.77
651.819	36127.51
652.171	36165.02
652.523	36185.14
652.875	36256.09
653.227	36102.65
653.578	36306.71
653.93	36226.26
654.282	36139.94
654.633	36055.2
654.985	36146.72
655.337	36088.64
655.688	36111.69
656.039	36305.58
656.391	35897.46
656.742	36044.8
657.094	36224.46
657.445	36235.08
657.796	36171.58
658.147	36163.22
658.498	36208.64
658.849	36217.23
659.2	36092.48
659.551	36100.84
659.902	36346.04
660.253	36185.59
660.604	36210.45
660.955	36092.26
661.306	36394.17
661.656	36243.21
662.007	36301.74
662.358	36285.92
662.708	36340.84
663.059	36259.26
663.409	36248.64
663.76	36366.37
664.11	36431.23
664.461	36364.34
664.811	36579.7
665.161	36554.17
665.511	36330.67
665.862	36443.66
666.212	36481.63
666.562	36569.98
666.912	36468.07
667.262	36330.22
667.612	36312.82
667.962	36511.23
668.312	36327.51
668.662	36588.29
669.011	36359.14
669.361	36440.95
669.711	36435.07
670.06	36503.32
670.41	36420.84
670.76	36326.38
671.109	36452.25
671.459	36336.09
671.808	36322.08
672.157	36493.6
672.507	36169.09
672.856	36214.74
673.205	36270.56
673.554	36232.37
673.904	36209.54
674.253	36501.51
674.602	36118.02
674.951	35707.63
675.3	35633.51
675.649	36199.6
675.998	36001.41
676.346	36164.8
676.695	36077.57
677.044	35896.1
677.393	36026.27
677.741	36113.05
678.09	36018.81
678.438	35742.21
678.787	35915.54
679.135	35896.33
679.484	35643.68
679.832	35748.54
680.181	35690.23
680.529	35843
680.877	35521.2
681.225	35538.15
681.573	35698.82
681.922	35349.68
682.27	35336.57
682.618	35411.82
682.966	35226.07
683.314	35289.79
683.661	35258.38
684.009	35189.46
684.357	34996.69
684.705	34838.5
685.053	34950.37
685.4	34860.43
685.748	34752.86
686.095	34803.93
686.443	34474.22
686.79	34558.29
687.138	34593.54
687.485	34411.17
687.832	34299.76
688.18	34250.5
688.527	34145.19
688.874	34022.48
689.221	33989.26
689.568	33816.84
689.915	33684.18
690.262	33841.92
690.609	33486
690.956	33438.09
691.303	33369.84
691.65	33219.56
691.997	33145.22
692.344	32905.45
692.69	32845.34
693.037	32978.89
693.383	32744.77
693.73	32776.64
694.077	32549.98
694.423	32381.85
694.769	32333.94
695.116	32227.73
695.462	32076.54
695.808	32062.08
696.155	31886.49
696.501	31680.85
696.847	31638.14
697.193	31372.61
697.539	31303.91
697.885	31168.54
698.231	31034.76
698.577	31144.82
698.923	31011.03
699.269	30663.02
699.614	30656.92
699.96	30684.26
700.306	30486.53
700.651	30399.3
700.997	30223.26
701.342	30234.33
701.688	30100.55
702.033	29886.77
702.379	29935.81
702.724	29794.12
703.069	29729.26
703.415	29303.51
703.76	29405.43
704.105	29377.18
704.45	29387.35
704.795	29051.54
705.14	28951.2
705.485	28982.84
705.83	28701.04
706.175	28832.34
706.52	28754.82
706.865	28677.08
707.209	28588.95
707.554	28500.14
707.899	28539.24
708.243	28266.02
708.588	28300.37
708.932	28094.73
709.277	28283.2
709.621	27936.77
709.966	27855.86
710.31	27984.45
710.654	27773.15
710.998	27803.66
711.342	27871.91
711.687	27634.63
712.031	27485.25
712.375	27456.55
712.719	27367.29
713.063	27276.22
713.407	27466.27
713.75	27203.45
714.094	27254.75
714.438	27165.94
714.782	27211.36
715.125	27072.61
715.469	27095.43
715.812	26958.26
716.156	26993.74
716.499	26895.89
716.843	26861.77
717.186	26779.73
717.53	26825.38
717.873	26823.8
718.216	26779.06
718.559	26773.41
718.902	26578.84
719.246	26642.34
719.589	26495.45
719.932	26409.8
720.275	26491.38
720.617	26403.25
720.96	26270.82
721.303	26554.65
721.646	26507.2
721.989	26350.37
722.331	26384.26
722.674	26244.38
723.016	26397.6
723.359	26262.01
723.701	26302.01
724.044	26162.8
724.386	26071.96
724.729	26284.38
725.071	26311.27
725.413	26427.88
725.755	26203.93
726.097	26242.57
726.439	26146.76
726.782	26087.32
727.124	26308.56
727.465	26200.99
727.807	26047.32
728.149	26263.36
728.491	26135.23
728.833	26215
729.175	26248.9
729.516	26121.45
729.858	26171.61
730.199	26259.97
730.541	26224.27
730.882	26119.41
731.224	26166.42
731.565	26180.88
731.906	26199.41
732.248	26250.71
732.589	26112.63
732.93	26103.59
733.271	26314.44
733.612	26254.32
733.953	26323.02
734.294	26264.72
734.635	26298.16
734.976	26303.14
735.317	26223.82
735.658	26271.5
735.999	26297.94
736.339	26375
736.68	26447.31
737.021	26444.38
737.361	26308.56
737.702	26530.7
738.042	26428.1
738.383	26589.91
738.723	26549.91
739.063	26458.16
739.404	26567.54
739.744	26708.32
740.084	26779.51
740.424	26803.46
740.764	26902.44
741.104	26999.39
741.444	26954.19
741.784	26877.58
742.124	27174.53
742.464	27079.16
742.804	27292.71
743.143	27213.39
743.483	27428.76
743.823	27376.78
744.162	27523.44
744.502	27549.21
744.841	27560.96
745.181	27879.37
745.52	27874.17
745.86	28006.37
746.199	28062.41
746.538	28043.43
746.877	28294.27
747.216	28466.02
747.556	28459.01
747.895	28680.02
748.234	28815.39
748.573	28877.76
748.911	28886.8
749.25	29076.85
749.589	29045.89
749.928	29416.05
750.267	29501.92
750.605	29625.99
750.944	29745.98
751.283	29916.15
751.621	30115.47
751.96	30129.7
752.298	30251.28
752.636	30542.35
752.975	30539.86
753.313	30709.57
753.651	31015.78
753.989	30967.19
754.327	31227.75
754.666	31033.86
755.004	31543.9
755.342	31652.37
755.679	31846.49
756.017	31745.03
756.355	32069.99
756.693	32243.54
757.031	32503.2
757.368	32403.77
757.706	32716.75
758.044	32653.48
758.381	32820.03
758.719	33001.94
759.056	33172.56
759.394	33196.97
759.731	33069.29
760.068	33269.51
760.405	33532.1
760.743	33566.22
761.08	33789.27
761.417	33787.46
761.754	33849.83
762.091	34069.71
762.428	33997.85
762.765	33907.23
763.102	34176.83
763.438	34299.76
763.775	34203.04
764.112	34309.48
764.449	34519.64
764.785	34591.96
765.122	34431.28
765.458	34569.36
765.795	34659.07
766.131	34824.04
766.467	34784.49
766.804	34679.41
767.14	34649.58
767.476	34730.71
767.812	34729.36
768.148	34839.18
768.485	34813.65
768.821	34792.86
769.157	34904.72
769.492	34773.65
769.828	34784.04
770.164	34595.8
770.5	34589.47
770.836	34662.69
771.171	34707.21
771.507	34643.48
771.842	34406.65
772.178	34577.95
772.513	34526.87
772.849	34367.1
773.184	34495.24
773.519	34333.21
773.855	34202.14
774.19	34361.68
774.525	34242.81
774.86	34239.2
775.195	34163.49
775.53	34011.63
775.865	33971.41
776.2	33718.76
776.535	33547.24
776.87	33645.09
777.205	33594.02
777.539	33645.09
777.874	33636.5
778.209	33354.48
778.543	33378.88
778.878	33185.44
779.212	33330.97
779.547	33032
779.881	32992.23
780.215	32847.37
780.55	32883.75
780.884	32716.75
781.218	32622.52
781.552	32753.81
781.886	32560.6
782.22	32396.08
782.554	32253.04
782.888	32009.88
783.222	32074.06
783.556	31872.26
783.889	31876.1
784.223	31593.84
784.557	31691.47
784.89	31780.73
785.224	31509.78
785.557	31465.49
785.891	31303.68
786.224	31350.24
786.558	31222.78
786.891	31039.96
787.224	30969.45
787.557	30955.67
787.891	30818.72
788.224	30663.93
788.557	30774.66
788.89	30539.18
789.223	30614.66
789.556	30341.45
789.888	30359.53
790.221	30159.08
790.554	30091.29
790.887	30056.94
791.219	29799.99
791.552	29784.4
791.884	29730.39
792.217	29827.11
792.549	29550.06
792.882	29422.15
793.214	29293.11
793.546	29258.54
793.879	29263.51
794.211	28979.9
794.543	29157.52
794.875	29036.17
795.207	29078.43
795.539	28952.56
795.871	28881.83
796.203	28756.63
796.535	28573.81
796.867	28561.83
797.198	28350.31
797.53	28341.5
797.862	28129.3
798.193	28175.4
798.525	27971.11
798.856	28038.68
799.188	27794.4
799.519	27808.18
799.85	27678.24
800.182	27669.43
800.513	27606.83
800.844	27483.67
801.175	27550.11
801.506	27593.5
801.837	27420.17
802.168	27287.52
802.499	27344.92
802.83	27038.71
803.161	27148.54
803.491	26898.37
803.822	27110.35
804.153	26798.94
804.483	26720.75
804.814	26610.02
805.145	26633.97
805.475	26718.04
805.805	26568.21
806.136	26532.06
806.466	26473.98
806.796	26451.61
807.126	26212.97
807.457	26160.54
807.787	26159.64
808.117	26176.36
808.447	25994.44
808.777	26023.14
809.107	25825.63
809.436	25798.29
809.766	25815.47
810.096	25805.97
810.426	25505.64
810.755	25728.69
811.085	25585.19
811.414	25486.21
811.744	25349.49
812.073	25261.36
812.403	25291.64
812.732	25252.32
813.061	25319.89
813.39	25224.07
813.719	25078.76
814.049	25218.42
814.378	25095.03
814.707	24900.46
815.036	24860.91
815.365	24757.87
815.693	24680.81
816.022	24662.5
816.351	24557.19
816.68	24516.97
817.008	24530.75
817.337	24251.44
817.665	24332.79
817.994	24424.32
818.322	24344.54
818.651	24201.04
818.979	24163.08
819.307	24084.66
819.636	24216.64
819.964	24036.53
820.292	24177.77
820.62	24082.4
820.948	24185.23
821.276	24227.03
821.604	24072.91
821.932	24288.05
822.259	24168.5
822.587	24078.56
822.915	24091.67
823.243	24119.69
823.57	23938.9
823.898	24240.14
824.225	24035.85
824.553	24023.65
824.88	24032.24
825.207	24155.17
825.535	24071.33
825.862	24159.24
826.189	24126.02
826.516	24191.55
826.843	24151.1
827.17	24348.84
827.497	24176.19
827.824	24225.9
828.151	24222.29
828.478	24054.61
828.805	24389.51
829.131	24190.42
829.458	24226.58
829.785	24005.57
830.111	24080.14
830.438	24229.07
830.764	24140.48
831.09	24261.83
831.417	24042.63
831.743	24210.31
832.069	24162.63
832.395	24166.24
832.722	24075.62
833.048	24074.49
833.374	24142.51
833.7	24050.09
834.026	24141.39
834.351	23981.39
834.677	24060.48
835.003	24076.08
835.329	24121.5
835.654	24026.59
835.98	23964.67
836.306	24020.03
836.631	23875.86
836.956	24094.61
837.282	24008.96
837.607	23865.91
837.932	23799.93
838.258	23887.38
838.583	23772.81
838.908	23668.4
839.233	23814.39
839.558	23691.91
839.883	23600.83
840.208	23567.84
840.533	23639.48
840.858	23629.53
841.182	23592.25
841.507	23425.7
841.832	23344.57
842.156	23389.99
842.481	23402.42
842.805	23273.16
843.13	23183.44
843.454	23245.82
843.778	23121.52
844.103	23203.78
844.427	23096.21
844.751	23173.73
845.075	23057.57
845.399	23028.19
845.723	22897.12
846.047	22891.25
846.371	22768.99
846.695	22696
847.019	22607.64
847.343	22439.06
847.666	22358.38
847.99	22270.93
848.313	22138.27
848.637	22132.85
848.96	22158.39
849.284	22043.59
849.607	21813.08
849.931	21918.17
850.254	21690.83
850.577	21562.7
850.9	21465.98
851.223	21455.35
851.546	21334.68
851.869	21235.92
852.192	21376.94
852.515	21092.65
852.838	20985.76
853.161	21060.79
853.483	20836.84
853.806	20855.14
854.129	20745.54
854.451	20678.88
854.774	20632.78
855.096	20543.74
855.419	20480.24
855.741	20490.41
856.063	20387.36
856.385	20289.51
856.708	20246.12
857.03	20148.04
857.352	20117.31
857.674	20106.69
857.996	20052.23
858.318	19818.79
858.64	19923.87
858.961	19806.13
859.283	19786.92
859.605	19600.26
859.926	19712.8
860.248	19571.79
860.57	19533.14
860.891	19587.83
861.212	19544.22
861.534	19376.99
861.855	19386.71
862.176	19351.23
862.498	19386.03
862.819	19374.5
863.14	19186.49
863.461	19155.75
863.782	19098.13
864.103	19125.25
864.424	19061.29
864.745	19102.2
865.065	18948.3
865.386	18860.85
865.707	18927.74
866.027	18856.78
866.348	18883.44
866.668	18853.84
866.989	18946.72
867.309	18589.89
867.63	18621.76
867.95	18850
868.27	18623.79
868.59	18829.21
868.91	18587.18
869.23	18539.72
869.55	18444.81
869.87	18579.5
870.19	18467.64
870.51	18558.48
870.83	18423.34
871.15	18415.21
871.469	18322.78
871.789	18403.68
872.109	18379.95
872.428	18261.54
872.748	18284.82
873.067	18221.31
873.386	18236
873.706	18171.6
874.025	18148.32
874.344	18214.54
874.663	18119.62
874.982	17999.63
875.301	18018.16
875.62	17975.22
875.939	17972.73
876.258	17933.64
876.577	17902.68
876.896	17864.49
877.214	17894.09
877.533	17866.07
877.852	17788.78
878.17	17792.63
878.489	17786.07
878.807	17700.65
879.125	17665.17
879.444	17599.86
879.762	17629.47
880.08	17651.16
880.398	17508.11
880.716	17583.59
881.034	17424.95
881.352	17548.79
881.67	17408
881.988	17506.98
882.306	17327.33
882.624	17360.32
882.941	17288.91
883.259	17148.12
883.577	17133.43
883.894	17117.16
884.212	17090.5
884.529	17178.86
884.846	16949.48
885.164	16879.43
885.481	16906.77
885.798	16979.09
886.115	16917.62
886.432	16934.79
886.75	16833.78
887.067	16863.38
887.383	16751.3
887.7	16719.89
888.017	16579.32
888.334	16665.88
888.651	16486.67
888.967	16535.48
889.284	16434.47
889.6	16366
889.917	16314.92
890.233	16353.79
890.55	16280.35
890.866	16244.64
891.182	16269.28
891.498	16188.83
891.815	16108.6
892.131	15987.48
892.447	16045.78
892.763	15947.93
893.079	15919.91
893.395	15827.03
893.71	15806.01
894.026	15771.44
894.342	15697.77
894.657	15607.82
894.973	15618.9
895.289	15571.21
895.604	15557.66
895.92	15521.5
896.235	15380.03
896.55	15360.6
896.865	15342.52
897.181	15296.65
897.496	15220.72
897.811	15112.7
898.126	15201.06
898.441	14995.64
898.756	15008.52
899.071	14960.38
899.386	15026.37
899.7	14871.35
900.015	14777.34
900.33	14695.31
900.644	14653.27
900.959	14657.57
901.273	14629.77
901.588	14538.25
901.902	14436.1
902.216	14428.19
902.531	14360.4
902.845	14318.14
903.159	14224.36
903.473	14156.11
903.787	14102.33
904.101	14118.82
904.415	14123.8
904.729	14093.97
905.042	13996.34
905.356	13910.69
905.67	13867.98
905.984	13831.83
906.297	13726.74
906.611	13604.03
906.924	13653.98
907.237	13585.05
907.551	13642.9
907.864	13496.69
908.177	13531.04
908.491	13403.36
908.804	13354.78
909.117	13300.09
909.43	13108.23
909.743	13140.09
910.056	13259.86
910.368	13109.36
910.681	13055.8
910.994	12966.31
911.307	12933.32
911.619	12843.83
911.932	12888.8
912.244	12729.48
912.557	12718.41
912.869	12661.01
913.181	12585.53
913.494	12531.75
913.806	12456.04
914.118	12371.07
914.43	12363.62
914.742	12308.93
915.054	12291.53
915.366	12247.91
915.678	12163.85
915.99	12170.63
916.302	12056.28
916.613	12064.41
916.925	11955.04
917.236	11983.74
917.548	11863.52
917.859	11914.14
918.171	11764.54
918.482	11704.2
918.794	11738.77
919.105	11677.08
919.416	11596.4
919.727	11529.29
920.038	11498.33
920.349	11447.48
920.66	11461.27
920.971	11399.8
921.282	11361.61
921.593	11234.38
921.903	11188.51
922.214	11146.92
922.525	11126.59
922.835	11079.81
923.146	11007.72
923.456	10953.48
923.767	10976.53
924.077	10869.64
924.387	10817.22
924.697	10775.18
925.008	10738.8
925.318	10702.42
925.628	10736.09
925.938	10739.93
926.248	10520.73
926.558	10469.2
926.867	10475.98
927.177	10384.68
927.487	10447.96
927.796	10329.32
928.106	10330.22
928.416	10209.55
928.725	10233.28
929.034	10121.87
929.344	10145.59
929.653	10121.64
929.962	9952.83
930.271	9976.33
930.581	9958.93
930.89	9916
931.199	9824.25
931.508	9793.51
931.817	9759.16
932.125	9779.28
932.434	9663.35
932.743	9617.25
933.051	9614.76
933.36	9603.69
933.669	9481.43
933.977	9487.31
934.286	9457.03
934.594	9445.5
934.902	9293.64
935.21	9291.83
935.519	9202.79
935.827	9224.72
936.135	9172.51
936.443	9162.34
936.751	9118.96
937.059	9060.43
937.367	8995.57
937.674	9032.86
937.982	8979.98
938.29	8998.28
938.597	8891.62
938.905	8836.7
939.213	8781.79
939.52	8724.39
939.827	8775.46
940.135	8699.98
940.442	8566.88
940.749	8588.35
941.056	8617.95
941.363	8466.99
941.67	8462.93
941.977	8428.13
942.284	8378.64
942.591	8404.62
942.898	8366.43
943.205	8445.75
943.511	8318.52
943.818	8232.65
944.125	8180.22
944.431	8222.03
944.738	8179.77
945.044	8139.09
945.35	8043.05
945.657	7977.74
945.963	7979.55
946.269	7963.28
946.575	7916.95
946.881	7862.04
947.187	7842.38
947.493	7788.37
947.799	7795.83
948.105	7748.14
948.41	7698.65
948.716	7698.88
949.022	7643.97
949.327	7607.58
949.633	7550.86
949.938	7521.03
950.244	7552.67
950.549	7457.53
950.854	7361.49
951.16	7430.19
951.465	7407.36
951.77	7339.57
952.075	7358.55
952.38	7274.48
952.685	7264.54
952.99	7203.3
953.294	7192.9
953.599	7088.27
953.904	7070.42
954.209	6997.2
954.513	7048.28
954.818	7057.77
955.122	7034.72
955.426	6950.2
955.731	6969.18
956.035	6908.62
956.339	6810.54
956.643	6813.48
956.948	6777.55
957.252	6773.48
957.556	6785.91
957.86	6677.89
958.163	6705.01
958.467	6668.62
958.771	6630.21
959.075	6595.18
959.378	6559.93
959.682	6541.62
959.985	6500.49
960.289	6463.66
960.592	6418.01
960.896	6489.42
961.199	6342.3
961.502	6432.47
961.805	6384.11
962.108	6252.59
962.411	6320.38
962.714	6234.06
963.017	6220.05
963.32	6187.73
963.623	6158.13
963.926	6178.02
964.228	6123.78
964.531	6059.83
964.833	6117.68
965.136	6031.8
965.438	5990.22
965.741	5996.78
966.043	5952.71
966.345	5950.68
966.648	5871.36
966.95	5900.06
967.252	5861.87
967.554	5852.83
967.856	5810.79
968.158	5792.04
968.46	5746.39
968.761	5721.3
969.063	5700.74
969.365	5668.2
969.666	5690.34
969.968	5594.3
970.269	5555.66
970.571	5563.79
970.872	5552.72
971.174	5604.7
971.475	5506.17
971.776	5481.31
972.077	5447.64
972.378	5403.12
972.679	5382.56
972.98	5381.43
973.281	5377.36
973.582	5374.19
973.883	5328.09
974.183	5258.72
974.484	5272.95
974.785	5191.6
975.085	5192.05
975.386	5181.43
975.686	5156.57
975.986	5156.57
976.287	5133.75
976.587	5033.86
976.887	5099.63
977.187	5019.63
977.487	5055.79
977.787	4956.58
978.087	4989.57
978.387	4932.85
978.687	4941.66
978.987	4907.09
979.286	4888.33
979.586	4867.09
979.885	4797.26
980.185	4788.45
980.484	4753.42
980.784	4810.59
981.083	4711.39
981.382	4695.57
981.682	4704.38
981.981	4677.26
982.28	4645.63
982.579	4628.9
982.878	4643.82
983.177	4562.01
983.475	4585.74
983.774	4527.66
984.073	4465.74
984.372	4507.32
984.67	4519.08
984.969	4456.48
985.267	4457.83
985.566	4385.29
985.864	4377.16
986.162	4345.3
986.461	4377.84
986.759	4311.4
987.057	4285.86
987.355	4302.58
987.653	4284.51
987.951	4288.35
988.249	4240.44
988.547	4214.9
988.844	4202.25
989.142	4170.38
989.44	4138.3
989.737	4147.79
990.035	4091.52
990.332	4076.83
990.63	4099.43
990.927	4074.34
991.224	4049.71
991.521	4005.19
991.819	3985.76
992.116	3962.93
992.413	3971.29
992.71	3910.5
993.006	3938.3
993.303	3910.28
993.6	3904.85
993.897	3888.13
994.193	3844.74
994.49	3841.58
994.787	3812.65
995.083	3810.62
995.379	3795.93
995.676	3769.94
995.972	3742.15
996.268	3699.21
996.565	3702.37
996.861	3662.83
997.157	3651.08
997.453	3674.58
997.749	3626.67
998.044	3597.97
998.34	3544.41
998.636	3562.49
998.932	3555.26
999.227	3532.44
999.523	3545.09
999.818	3476.62
1000.114	3455.15
1000.409	3446.34
1000.704	3456.73
1001	3440.46
1001.295	3360.91
1001.59	3381.48
1001.885	3365.43
1002.18	3336.28
1002.475	3360.24
1002.77	3263.74
1003.065	3263.52
1003.359	3276.62
1003.654	3278.88
1003.949	3248.6
1004.243	3171.99
1004.538	3183.52
1004.832	3153.01
1005.127	3162.05
1005.421	3124.76
1005.715	3122.95
1006.009	3115.72
1006.304	3070.3
1006.598	3066.68
1006.892	3012.68
1007.186	3053.58
1007.48	2994.14
1007.773	2993.92
1008.067	2961.6
1008.361	2920.25
1008.655	2899.68
1008.948	2897.65
1009.242	2883.19
1009.535	2897.65
1009.829	2869.18
1010.122	2823.75
1010.415	2834.83
1010.708	2802.51
1011.001	2785.11
1011.295	2805.67
1011.588	2785.11
1011.881	2731.33
1012.173	2710.76
1012.466	2719.8
1012.759	2711.21
1013.052	2669.63
1013.344	2687.94
1013.637	2692.46
1013.93	2642.06
1014.222	2616.3
1014.514	2609.52
1014.807	2567.49
1015.099	2528.17
1015.391	2559.81
1015.683	2544.66
1015.976	2509.64
1016.268	2504.89
1016.56	2460.83
1016.851	2461.5
1017.143	2436.87
1017.435	2426.02
1017.727	2428.28
1018.018	2353.26
1018.31	2395.97
1018.602	2359.36
1018.893	2313.48
1019.185	2331.11
1019.476	2327.27
1019.767	2279.59
1020.058	2275.07
1020.35	2262.64
1020.641	2254.73
1020.932	2246.59
1021.223	2213.37
1021.514	2204.79
1021.804	2210.66
1022.095	2177.44
1022.386	2154.62
1022.677	2168.4
1022.967	2098.35
1023.258	2083.89
1023.548	2118.24
1023.839	2081.85
1024.129	2043.21
1024.419	2047.95
1024.709	2026.03
1025	2025.13
1025.29	2013.61
1025.58	2007.05
1025.87	1972.93
1026.16	1951.23
1026.449	1976.09
1026.739	1934.96
1027.029	1896.55
1027.319	1931.8
1027.608	1888.86
1027.898	1861.97
1028.187	1899.48
1028.477	1871.01
1028.766	1854.06
1029.055	1842.08
1029.344	1817.45
1029.634	1818.13
1029.923	1769.09
1030.212	1770.67
1030.501	1767.28
1030.79	1774.29
1031.078	1724.57
1031.367	1743.33
1031.656	1718.02
1031.945	1669.66
1032.233	1705.59
1032.522	1663.78
1032.81	1675.31
1033.099	1672.82
1033.387	1651.58
1033.675	1630.34
1033.963	1618.59
1034.251	1608.42
1034.54	1602.99
1034.828	1595.76
1035.116	1582.66
1035.403	1555.31
1035.691	1539.72
1035.979	1533.39
1036.267	1552.37
1036.554	1534.75
1036.842	1499.04
1037.129	1485.03
1037.417	1458.59
1037.704	1487.97
1037.992	1476.44
1038.279	1468.31
1038.566	1420.4
1038.853	1420.4
1039.14	1420.4
