Data from 7737_FLMS001491_006.txt Node
Date: Thu Apr 19 15:41:12 BST 2018
User: hsy
Spectrometer: FLMS00149
Trigger mode: 0
Integration Time (sec): 1.000000E-2
Scans to average: 10
Electric dark correction enabled: true
Nonlinearity correction enabled: false
Boxcar width: 0
XAxis mode: Wavelengths
Number of Pixels in Spectrum: 2048
>>>>>Begin Spectral Data<<<<<
341.393	0.61
341.776	0.61
342.16	0.61
342.543	-75.1
342.927	-39.62
343.31	-62.44
343.693	-71.93
344.077	-67.87
344.46	-51.59
344.843	-48.2
345.226	-51.14
345.61	-26.51
345.993	-6.4
346.376	-16.34
346.759	7.61
347.142	27.05
347.525	39.48
347.908	36.99
348.291	70.89
348.674	113.37
349.057	107.05
349.44	101.85
349.823	144.33
350.206	149.53
350.588	232.92
350.971	263.88
351.354	246.02
351.737	268.4
352.119	282.63
352.502	310.43
352.884	313.37
353.267	308.62
353.65	328.73
354.032	338.45
354.414	335.29
354.797	351.78
355.179	345.23
355.562	352.69
355.944	366.93
356.326	361.28
356.709	353.59
357.091	360.6
357.473	382.07
357.855	388.62
358.238	383.65
358.62	374.83
359.002	378.45
359.384	403.99
359.766	373.7
360.148	375.06
360.53	358.79
360.912	391.33
361.294	373.25
361.676	383.2
362.057	370.54
362.439	357.89
362.821	382.52
363.203	363.08
363.584	360.82
363.966	365.12
364.348	338
364.729	360.15
365.111	350.88
365.493	365.8
365.874	382.07
366.256	364.67
366.637	359.92
367.019	360.82
367.4	368.73
367.781	377.55
368.163	376.42
368.544	366.47
368.925	352.24
369.306	352.24
369.688	358.56
370.069	344.55
370.45	357.66
370.831	360.82
371.212	387.72
371.593	385
371.974	371.9
372.355	347.49
372.736	380.48
373.117	377.77
373.498	369.64
373.879	375.06
374.26	370.09
374.641	365.57
375.021	367.6
375.402	368.51
375.783	389.75
376.163	412.8
376.544	399.92
376.925	402.4
377.305	406.47
377.686	414.83
378.066	406.25
378.447	408.73
378.827	415.96
379.208	401.95
379.588	409.41
379.968	400.37
380.349	430.2
380.729	400.6
381.109	420.48
381.489	402.86
381.87	421.39
382.25	416.87
382.63	416.42
383.01	413.7
383.39	422.97
383.77	431.1
384.15	432.91
384.53	434.04
384.91	416.64
385.29	454.83
385.67	469.3
386.049	459.8
386.429	436.98
386.809	462.97
387.189	462.74
387.568	459.58
387.948	448.28
388.328	458.67
388.707	485.79
389.087	467.26
389.466	474.49
389.846	496.19
390.225	480.14
390.605	498.67
390.984	486.02
391.363	476.98
391.743	520.59
392.122	512.91
392.501	512.46
392.881	503.42
393.26	495.96
393.639	515.62
394.018	508.16
394.397	522.85
394.776	496.19
395.155	513.59
395.534	515.62
395.913	509.07
396.292	520.59
396.671	540.71
397.05	546.13
397.429	516.3
397.808	545.68
398.186	526.7
398.565	554.04
398.944	554.94
399.323	548.62
399.701	582.29
400.08	568.05
400.458	566.24
400.837	552.23
401.215	553.36
401.594	582.51
401.972	581.38
402.351	581.16
402.729	573.02
403.107	597.2
403.486	602.63
403.864	618.44
404.242	615.05
404.62	608.73
404.999	622.74
405.377	623.42
405.755	648.05
406.133	624.32
406.511	657.77
406.889	679.69
407.267	652.57
407.645	669.74
408.023	655.73
408.401	684.88
408.779	671.32
409.156	688.27
409.534	685.11
409.912	683.98
410.29	694.6
410.667	708.16
411.045	702.51
411.422	724.66
411.8	735.28
412.178	725.79
412.555	747.03
412.933	752.9
413.31	756.52
413.687	762.4
414.065	759.01
414.442	790.42
414.819	787.03
415.197	786.12
415.574	827.93
415.951	802.62
416.328	795.61
416.705	815.28
417.082	815.28
417.46	817.31
417.837	836.07
418.214	831.77
418.591	824.99
418.967	842.62
419.344	832.68
419.721	879.45
420.098	867.03
420.475	857.31
420.852	883.07
421.228	898.21
421.605	886.46
421.982	889.62
422.358	936.4
422.735	913.58
423.111	940.02
423.488	930.3
423.864	930.3
424.241	945.89
424.617	940.7
424.994	967.81
425.37	966.91
425.746	967.36
426.123	971.43
426.499	996.97
426.875	975.95
427.251	1003.29
427.627	1042.84
428.003	1039.45
428.379	1055.04
428.756	1058.88
429.132	1070.86
429.507	1084.42
429.883	1086.91
430.259	1112.67
430.635	1138.88
431.011	1130.97
431.387	1119
431.763	1164.64
432.138	1161.71
432.514	1177.07
432.89	1168.49
433.265	1206.9
433.641	1217.98
434.016	1234.47
434.392	1256.17
434.767	1266.79
435.143	1250.29
435.518	1254.13
435.894	1322.38
436.269	1307.01
436.644	1318.31
437.02	1308.82
437.395	1318.76
437.77	1336.17
438.145	1378.2
438.52	1372.55
438.895	1412.32
439.271	1410.97
439.646	1429.27
440.021	1444.19
440.395	1446.45
440.77	1419.55
441.145	1414.13
441.52	1456.39
441.895	1477.86
442.27	1496.16
442.645	1470.4
443.019	1489.38
443.394	1510.62
443.769	1508.14
444.143	1511.98
444.518	1533.45
444.892	1524.64
445.267	1502.49
445.641	1552.2
446.016	1577.74
446.39	1556.05
446.764	1546.33
447.139	1560.57
447.513	1575.48
447.887	1575.48
448.262	1603.5
448.636	1614.8
449.01	1643.73
449.384	1651.41
449.758	1638.98
450.132	1684.63
450.506	1688.47
450.88	1730.28
451.254	1694.35
451.628	1712.2
452.002	1734.57
452.376	1738.41
452.75	1755.82
453.123	1754.46
453.497	1798.53
453.871	1817.73
454.244	1863.38
454.618	1853.89
454.992	1929.14
455.365	1917.85
455.739	1937.28
456.112	1969.14
456.486	1972.08
456.859	1991.97
457.232	2008.69
457.606	2073.32
457.979	2077.61
458.352	2138.63
458.725	2143.38
459.099	2118.52
459.472	2178.4
459.845	2228.12
460.218	2239.87
460.591	2257.5
460.964	2277.38
461.337	2333.2
461.71	2364.84
462.083	2334.11
462.456	2384.27
462.829	2398.96
463.201	2436.02
463.574	2417.04
463.947	2476.7
464.32	2523.25
464.692	2538.85
465.065	2535.23
465.438	2566.64
465.81	2621.56
466.183	2655.23
466.555	2700.42
466.928	2716.47
467.3	2692.29
467.672	2725.06
468.045	2807.09
468.417	2807.54
468.789	2834.88
469.161	2856.13
469.534	2934.54
469.906	2946.74
470.278	2987.42
470.65	3035.56
471.022	3017.25
471.394	3127.53
471.766	3159.62
472.138	3173.86
472.51	3267.87
472.882	3297.02
473.253	3333.63
473.625	3411.14
473.997	3461.31
474.369	3479.61
474.74	3542.66
475.112	3538.14
475.484	3638.93
475.855	3706.5
476.227	3743.56
476.598	3858.13
476.97	3857.23
477.341	3955.53
477.713	3998.24
478.084	4041.41
478.455	4195.07
478.827	4160.72
479.198	4316.43
479.569	4338.57
479.94	4477.1
480.311	4497.89
480.682	4618.11
481.053	4727.26
481.424	4814.27
481.795	4852.91
482.166	4934.49
482.537	5049.51
482.908	5114.6
483.279	5190.08
483.65	5285.67
484.021	5475.04
484.391	5513.46
484.762	5608.14
485.133	5753.45
485.503	5756.84
485.874	5921.81
486.244	6032.77
486.615	6131.97
486.985	6251.52
487.356	6385.75
487.726	6498.29
488.097	6638.17
488.467	6667.78
488.837	6872.52
489.207	6992.74
489.578	7156.58
489.948	7263.92
490.318	7426.17
490.688	7500.3
491.058	7694.87
491.428	7888.54
491.798	7948.65
492.168	8213.95
492.538	8277.23
492.908	8453.04
493.278	8664.79
493.648	8730.1
494.017	8882.18
494.387	9102.74
494.757	9290.31
495.126	9405.78
495.496	9531.2
495.866	9721.71
496.235	9952.21
496.605	10122.83
496.974	10254.8
497.344	10424.06
497.713	10654.56
498.082	10771.85
498.452	10936.36
498.821	11123.25
499.19	11327.09
499.559	11600.75
499.928	11791.03
500.298	11926.4
500.667	12180.17
501.036	12400.73
501.405	12581.29
501.774	12664.68
502.143	13072.58
502.512	13193.48
502.88	13461.27
503.249	13593.24
503.618	13899
503.987	14056.51
504.356	14308.03
504.724	14436.84
505.093	14609.26
505.462	14957.5
505.83	15196.37
506.199	15413.08
506.567	15652.85
506.936	15752.96
507.304	16173.97
507.672	16375.77
508.041	16541.87
508.409	16769.43
508.777	17003.1
509.145	17299.14
509.514	17466.36
509.882	17744.77
510.25	17827.26
510.618	18090.75
510.986	18303.63
511.354	18528.48
511.722	18791.07
512.09	19091.18
512.458	19223.83
512.826	19431.06
513.193	19587.44
513.561	19744.27
513.929	20061.77
514.297	20281.43
514.664	20449.56
515.032	20656.11
515.4	20935.42
515.767	21085.93
516.135	21233.72
516.502	21185.81
516.869	21609.53
517.237	21704.22
517.604	21785.35
517.972	22180.82
518.339	22374.03
518.706	22442.73
519.073	22550.75
519.44	22708.94
519.808	23019.89
520.175	23169.94
520.542	23380.11
520.909	23545.75
521.276	23620.78
521.643	23907.55
522.009	24100.54
522.376	24115.45
522.743	24512.73
523.11	24710.47
523.477	24917.92
523.843	24971.7
524.21	25222.99
524.577	25521.74
524.943	25712.7
525.31	25700.27
525.676	26088.28
526.043	26156.76
526.409	26211.44
526.776	26492.79
527.142	26721.94
527.508	26689.17
527.874	26967.13
528.241	27109.05
528.607	27180.91
528.973	27605.53
529.339	27356.5
529.705	27757.62
530.071	27965.3
530.437	27995.58
530.803	28247.1
531.169	28291.16
531.535	28266.3
531.901	28468.33
532.267	28547.65
532.632	28589.69
532.998	28669.01
533.364	28820.64
533.73	28929.34
534.095	29115.1
534.461	29117.13
534.826	29297.92
535.192	29259.27
535.557	29424.01
535.923	29376.33
536.288	29475.31
536.653	29559.15
537.019	29585.14
537.384	29670.11
537.749	29726.83
538.114	29683.44
538.479	29652.26
538.845	29721.86
539.21	29702.88
539.575	29822.2
539.94	29845.02
540.305	29948.97
540.67	29896.09
541.034	29919.82
541.399	29970.44
541.764	30024.9
542.129	30042.76
542.494	30025.58
542.858	30123.88
543.223	30007.5
543.587	30117.78
543.952	30038.46
544.316	30086.14
544.681	30154.84
545.045	30253.37
545.41	30223.09
545.774	30081.62
546.138	30129.31
546.503	30186.71
546.867	30166.59
547.231	30269.64
547.595	30245.24
547.959	30249.98
548.324	30291.56
548.688	30375.18
549.052	30365.68
549.416	30247.27
549.779	30163.88
550.143	30290.88
550.507	30403.88
550.871	30441.39
551.235	30423.31
551.599	30584.21
551.962	30568.84
552.326	30618.56
552.689	30570.2
553.053	30341.73
553.417	30543.08
553.78	30656.52
554.143	30624.21
554.507	30683.42
554.87	30739.23
555.234	30885.44
555.597	30762.51
555.96	30721.38
556.323	30859.23
556.686	30879.57
557.05	30917.76
557.413	31033.92
557.776	31012
558.139	31135.83
558.502	31038.21
558.865	31108.04
559.228	31254.02
559.59	31226.9
559.953	31228.26
560.316	31671.19
560.679	31473.23
561.041	31629.38
561.404	31773.78
561.767	31817.62
562.129	31691.98
562.492	32098.52
562.854	32020.1
563.217	32054
563.579	32148.01
563.941	32260.32
564.304	32269.59
564.666	32488.79
565.028	32537.38
565.39	32537.38
565.753	32624.83
566.115	32681.1
566.477	32828.9
566.839	32870.48
567.201	33176.01
567.563	32950.93
567.925	33209.23
568.287	33038.83
568.648	33200.64
569.01	33391.59
569.372	33605.6
569.734	33522.44
570.095	33520.4
570.457	33712.94
570.819	33620.97
571.18	33643.56
571.542	33960.62
571.903	33838.59
572.265	33890.34
572.626	34109.09
572.987	34062.08
573.349	34135.98
573.71	34320.16
574.071	34445.8
574.432	34489.64
574.794	34635.4
575.155	34640.6
575.516	34527.61
575.877	34661.16
576.238	34615.97
576.599	34742.07
576.96	34696.87
577.32	34751.78
577.681	34878.33
578.042	34894.15
578.403	34881.72
578.763	34847.15
579.124	34996.52
579.485	35004.43
579.845	35078.78
580.206	34962.85
580.566	34918.33
580.927	34885.34
581.287	34928.28
581.648	34868.39
582.008	35020.7
582.368	35005.11
582.728	34932.8
583.089	34939.35
583.449	34885.57
583.809	34944.77
584.169	35074.71
584.529	34722.63
584.889	35046.01
585.249	34866.36
585.609	34696.42
585.969	34801.27
586.329	34708.62
586.688	34842.18
587.048	34729.86
587.408	34582.07
587.768	34638.11
588.127	34589.3
588.487	34614.61
588.846	34756.76
589.206	34462.3
589.565	34408.52
589.925	34685.12
590.284	34415.52
590.643	34625.46
591.003	34617.1
591.362	34501.17
591.721	34531.45
592.08	34549.53
592.44	34558.12
592.799	34330.1
593.158	34400.61
593.517	34325.13
593.876	34430.66
594.235	34207.62
594.593	34333.49
594.952	34327.84
595.311	34219.82
595.67	34318.58
596.029	34321.51
596.387	34441.28
596.746	34413.49
597.104	34278.58
597.463	34166.04
597.822	34369.65
598.18	34257.11
598.538	34197.67
598.897	34310.44
599.255	34098.92
599.613	34577.78
599.972	34260.27
600.33	34336.43
600.688	34238.58
601.046	34235.41
601.404	34502.98
601.762	34262.98
602.12	34372.13
602.478	34401.74
602.836	34484.45
603.194	34214.85
603.552	34401.96
603.91	34247.84
604.268	34345.92
604.625	34315.19
604.983	34604.9
605.341	34265.47
605.698	34434.96
606.056	34632.69
606.413	34446.26
606.771	34688.96
607.128	34622.52
607.485	34606.7
607.843	34439.93
608.2	34639.02
608.557	34766.47
608.914	34589.98
609.272	34762.41
609.629	34880.14
609.986	35023.19
610.343	34900.03
610.7	35209.17
611.057	35177.54
611.414	35093.24
611.771	35188.61
612.127	35260.7
612.484	35266.12
612.841	35300.02
613.198	35196.97
613.554	35144.99
613.911	35557.86
614.267	35352.45
614.624	35309.06
614.98	35471.54
615.337	35712.21
615.693	35478.54
616.05	35522.61
616.406	35760.35
616.762	35597.41
617.118	35728.93
617.475	35682.61
617.831	35750.85
618.187	35817.74
618.543	35914.24
618.899	36224.51
619.255	35997.17
619.611	35942.94
619.967	36159.66
620.323	36125.53
620.678	36075.37
621.034	36101.8
621.39	36043.5
621.746	35932.54
622.101	36356.71
622.457	36125.31
622.812	36445.3
623.168	36297.96
623.523	36275.36
623.879	36393.32
624.234	36318.97
624.589	36472.87
624.945	36398.52
625.3	36409.59
625.655	36356.49
626.01	36349.26
626.365	36443.26
626.72	36322.36
627.075	36327.79
627.43	36179.32
627.785	36265.64
628.14	36322.82
628.495	36370.72
628.85	36305.19
629.205	36273.33
629.559	36341.8
629.914	36121.69
630.269	36248.24
630.623	36088.02
630.978	36058.42
631.332	36275.36
631.687	36143.84
632.041	36130.05
632.396	36023.61
632.75	35900
633.104	35838.54
633.459	35780.23
633.813	35890.74
634.167	35916.73
634.521	35874.24
634.875	35831.3
635.229	35650.29
635.583	35447.58
635.937	35460.47
636.291	35385.21
636.645	35426.34
636.999	35335.05
637.352	35418.89
637.706	35224.09
638.06	35321.03
638.413	35246.91
638.767	35261.6
639.121	35298.66
639.474	35018.67
639.828	35119.01
640.181	35121.49
640.534	35237.87
640.888	34918.56
641.241	34958.56
641.594	34834.27
641.947	34963.76
642.301	34825.91
642.654	34940.48
643.007	34914.72
643.36	34795.62
643.713	34727.6
644.066	35003.75
644.419	34726.47
644.771	34345.24
645.124	33941.64
645.477	34060.5
645.83	33840.62
646.182	33840.4
646.535	33892.6
646.888	34036.1
647.24	33959.94
647.593	34063.67
647.945	33944.12
648.298	33812.6
648.65	33687.18
649.002	33624.36
649.355	33263.46
649.707	33277.92
650.059	33242.9
650.411	33803.11
650.763	34053.27
651.115	34545.24
651.467	34427.72
651.819	34458.01
652.171	34337.78
652.523	34289.42
652.875	34320.16
653.227	34255.3
653.578	34580.72
653.93	34433.15
654.282	34288.75
654.633	34307.28
654.985	34460.49
655.337	34285.58
655.688	34226.83
656.039	34449.42
656.391	33957.23
656.742	34170.33
657.094	34131.24
657.445	34355.18
657.796	34376.65
658.147	34234.28
658.498	34386.37
658.849	34341.17
659.2	34283.1
659.551	34260.27
659.902	34510.89
660.253	34396.54
660.604	34560.6
660.955	34391.34
661.306	34514.28
661.656	34387.5
662.007	34478.34
662.358	34538.46
662.708	34579.36
663.059	34438.57
663.409	34398.35
663.76	34451.9
664.11	34486.71
664.461	34610.77
664.811	34443.09
665.161	34424.33
665.511	34309.08
665.862	34538.46
666.212	34508.17
666.562	34578.91
666.912	34571.45
667.262	34383.43
667.612	34573.94
667.962	34574.61
668.312	34482.64
668.662	34752.91
669.011	34548.63
669.361	34443.54
669.711	34575.29
670.06	34493.03
670.41	34394.51
670.76	34326.03
671.109	34616.19
671.459	34312.47
671.808	34365.13
672.157	34270.89
672.507	34220.05
672.856	34237.9
673.205	34270.21
673.554	34302.53
673.904	34297.78
674.253	34544.33
674.602	34283.1
674.951	33858.7
675.3	33651.25
675.649	34204
675.998	34232.7
676.346	34197.22
676.695	34192.93
677.044	33874.29
677.393	33969.88
677.741	34103.21
678.09	33967.85
678.438	33923.56
678.787	34032.03
679.135	34010.33
679.484	33748.19
679.832	33878.13
680.181	33790.68
680.529	33790.68
680.877	33614.41
681.225	33663.68
681.573	33830
681.922	33580.52
682.27	33566.73
682.618	33463
682.966	33497.58
683.314	33425.72
683.661	33412.38
684.009	33207.87
684.357	33138.95
684.705	32989.12
685.053	33131.04
685.4	32922.45
685.748	32849.46
686.095	32892.17
686.443	32641.78
686.79	32712.06
687.138	32787.54
687.485	32521.56
687.832	32496.02
688.18	32403.37
688.527	32347.55
688.874	32363.6
689.221	32300.32
689.568	32139.88
689.915	31923.16
690.262	32051.29
690.609	31797.51
690.956	31669.38
691.303	31687.91
691.65	31458.76
691.997	31415.15
692.344	31282.27
692.69	31164.53
693.037	31278.43
693.383	30948.49
693.73	31021.49
694.077	30789.85
694.423	30725.68
694.769	30658.11
695.116	30641.16
695.462	30561.16
695.808	30284.56
696.155	30347.38
696.501	30157.55
696.847	30101.06
697.193	29851.8
697.539	29808.86
697.885	29685.7
698.231	29639.38
698.577	29478.93
698.923	29495.43
699.269	29208.2
699.614	29095.21
699.96	29029.67
700.306	29028.54
700.651	28765.27
700.997	28716.91
701.342	28624.71
701.688	28463.14
702.033	28380.88
702.379	28176.14
702.724	28149.92
703.069	28206.42
703.415	28033.09
703.76	27836.26
704.105	27807.33
704.45	27824.51
704.795	27600.56
705.14	27567.11
705.485	27446.67
705.83	27291.19
706.175	27372.54
706.52	27300.23
706.865	27134.81
707.209	26996.51
707.554	26938.88
707.899	26933.01
708.243	26768.72
708.588	26660.7
708.932	26558.33
709.277	26563.75
709.621	26490.08
709.966	26367.6
710.31	26164.89
710.654	26119.24
710.998	26062.52
711.342	26220.93
711.687	26002.18
712.031	25943.65
712.375	25921.96
712.719	25977.1
713.063	25815.52
713.407	25936.42
713.75	25764.22
714.094	25745.02
714.438	25545.25
714.782	25629.31
715.125	25407.17
715.469	25576.66
715.812	25430.9
716.156	25468.19
716.499	25364.91
716.843	25422.09
717.186	25303.67
717.53	25566.49
717.873	25397.68
718.216	25305.93
718.559	25266.84
718.902	24941.87
719.246	25176.44
719.589	25158.82
719.932	24968.76
720.275	24999.5
720.617	24908.65
720.96	25014.64
721.303	25114.07
721.646	25067.52
721.989	24949.33
722.331	24910.01
722.674	24970.12
723.016	24891.03
723.359	24820.29
723.701	24986.17
724.044	24741.43
724.386	24703.91
724.729	24849.67
725.071	24762.44
725.413	24775.1
725.755	24775.55
726.097	24616.46
726.439	24712.05
726.782	24589.11
727.124	24958.14
727.465	24731.03
727.807	24645.16
728.149	24759.05
728.491	24694.87
728.833	24755.89
729.175	24715.66
729.516	24558.83
729.858	24667.3
730.199	24719.73
730.541	24711.82
730.882	24580.98
731.224	24699.39
731.565	24673.4
731.906	24795.21
732.248	24767.41
732.589	24663.24
732.93	24583.24
733.271	24660.3
733.612	24689.68
733.953	24851.71
734.294	24750.01
734.635	24746.17
734.976	25027.29
735.317	24836.56
735.658	24863
735.999	24927.86
736.339	24997.46
736.68	25012.83
737.021	24968.09
737.361	25005.6
737.702	25197.23
738.042	25102.09
738.383	25134.41
738.723	25130.34
739.063	25091.92
739.404	25285.82
739.744	25275.2
740.084	25160.4
740.424	25374.86
740.764	25355.42
741.104	25529.65
741.444	25429.54
741.784	25419.83
742.124	25627.05
742.464	25691.46
742.804	25705.92
743.143	25784.11
743.483	25894.62
743.823	25803.32
744.162	25981.17
744.502	26311.78
744.841	26241.27
745.181	26428.39
745.52	26277.66
745.86	26489.4
746.199	26622.28
746.538	26657.31
746.877	26932.78
747.216	27033.79
747.556	27114.7
747.895	27216.61
748.234	27149.95
748.573	27374.8
748.911	27457.96
749.25	27659.77
749.589	27634.91
749.928	27935.92
750.267	28041.45
750.605	28048.01
750.944	28217.04
751.283	28270.82
751.621	28551.72
751.96	28639.4
752.298	28854.99
752.636	28973.18
752.975	29037.81
753.313	29161.87
753.651	29640.51
753.989	29535.2
754.327	29626.04
754.666	29758.69
755.004	30021.96
755.342	30173.37
755.679	30298.57
756.017	30419.47
756.355	30708.05
756.693	30727.03
757.031	31019.68
757.368	31003.86
757.706	31147.13
758.044	31250.86
758.381	31461.48
758.719	31536.28
759.056	31792.99
759.394	31839.54
759.731	31694.92
760.068	31859.88
760.405	32117.05
760.743	32221.68
761.08	32452.41
761.417	32452.41
761.754	32649.24
762.091	32703.25
762.428	32488.79
762.765	32635.23
763.102	32957.25
763.438	32973.53
763.775	32887.43
764.112	33001.32
764.449	33177.59
764.785	33202.67
765.122	33220.75
765.458	33096.91
765.795	33409.67
766.131	33388.2
766.467	33352.72
766.804	33223.01
767.14	33382.78
767.476	33435.21
767.812	33456
768.148	33570.57
768.485	33512.49
768.821	33351.14
769.157	33475.43
769.492	33436.11
769.828	33418.26
770.164	33363.35
770.5	33387.3
770.836	33516.79
771.171	33369.67
771.507	33331.03
771.842	33266.85
772.178	33310.24
772.513	33284.93
772.849	33026.86
773.184	33170.36
773.519	33218.94
773.855	33057.37
774.19	32886.07
774.525	32857.6
774.86	32893.53
775.195	32936.01
775.53	32932.4
775.865	32703.02
776.2	32541.22
776.535	32452.41
776.87	32429.59
777.205	32358.4
777.539	32287.22
777.874	32278.18
778.209	32030.5
778.543	32060.33
778.878	32028.47
779.212	31963.16
779.547	31702.15
779.881	31775.59
780.215	31516.61
780.55	31604.52
780.884	31315.04
781.218	31402.95
781.552	31414.02
781.886	31232.1
782.22	31163.4
782.554	30963.18
782.888	30815.39
783.222	30837.99
783.556	30687.03
783.889	30673.25
784.223	30468.05
784.557	30448.39
784.89	30482.29
785.224	30325.23
785.557	30168.63
785.891	30169.76
786.224	30010.44
786.558	30115.97
786.891	29926.37
787.224	29838.69
787.557	29700.62
787.891	29680.73
788.224	29393.28
788.557	29451.81
788.89	29396.22
789.223	29376.78
789.556	29131.14
789.888	29101.99
790.221	29091.82
790.554	28881.66
790.887	28821.09
791.219	28753.98
791.552	28767.53
791.884	28582.45
792.217	28517.15
792.549	28499.74
792.882	28164.84
793.214	28287.1
793.546	28214.33
793.879	28086.42
794.211	27856.37
794.543	28160.32
794.875	27938.86
795.207	27916.48
795.539	27786.32
795.871	27850.5
796.203	27661.12
796.535	27435.14
796.867	27554.91
797.198	27294.8
797.53	27417.06
797.862	27096.39
798.193	27182.49
798.525	26938.43
798.856	27070.4
799.188	26712.67
799.519	26674.26
799.85	26655.5
800.182	26772.78
800.513	26605.11
800.844	26312.91
801.175	26594.48
801.506	26527.82
801.837	26434.04
802.168	26252.8
802.499	26448.73
802.83	26100.03
803.161	26013.26
803.491	25986.36
803.822	26138.68
804.153	25853.49
804.483	25772.81
804.814	25628.41
805.145	25740.27
805.475	25629.99
805.805	25581.4
806.136	25676.09
806.466	25455.98
806.796	25386.38
807.126	25192.71
807.457	25317
807.787	25246.05
808.117	25233.84
808.447	25067.74
808.777	25134.86
809.107	24843.8
809.436	24848.77
809.766	24763.35
810.096	24871.82
810.426	24722.67
810.755	24733.52
811.085	24655.55
811.414	24623.01
811.744	24631.15
812.073	24515.67
812.403	24506.4
812.732	24322.23
813.061	24451.04
813.39	24131.95
813.719	24125.62
814.049	24316.58
814.378	24124.49
814.707	23982.58
815.036	24054.44
815.365	23905.97
815.693	23752.98
816.022	23819.64
816.351	23804.28
816.68	23604.73
817.008	23739.64
817.337	23435.47
817.665	23503.27
817.994	23449.03
818.322	23633.21
818.651	23393.21
818.979	23338.98
819.307	23361.58
819.636	23353.67
819.964	23211.52
820.292	23337.39
820.62	23220.11
820.948	23276.38
821.276	23428.47
821.604	23226.89
821.932	23423.04
822.259	23270.05
822.587	23228.25
822.915	23124.97
823.243	23323.61
823.57	23088.36
823.898	23267.34
824.225	23115.48
824.553	23128.13
824.88	23165.87
825.207	23240.22
825.535	23119.77
825.862	23276.61
826.189	23192.54
826.516	23407.9
826.843	23362.03
827.17	23275.93
827.497	23337.62
827.824	23276.15
828.151	23399.54
828.478	23189.83
828.805	23361.35
829.131	23343.95
829.458	23150.06
829.785	23129.04
830.111	23262.59
830.438	23381.91
830.764	23218.3
831.09	23262.37
831.417	23291.52
831.743	23339.65
832.069	23315.47
832.395	23214.01
832.722	23269.83
833.048	23050.4
833.374	23295.14
833.7	23091.3
834.026	23184.63
834.351	23099.89
834.677	23143.28
835.003	23264.18
835.329	23033
835.654	23049.49
835.98	22930.4
836.306	23101.92
836.631	23058.98
836.956	23096.05
837.282	23037.29
837.607	22928.37
837.932	22953
838.258	22898.31
838.583	22968.14
838.908	22891.53
839.233	22828.71
839.558	22749.16
839.883	22783.96
840.208	22619.45
840.533	22753.68
840.858	22654.47
841.182	22720.46
841.507	22622.39
841.832	22620.13
842.156	22656.73
842.481	22484.54
842.805	22453.58
843.13	22366.8
843.454	22366.35
843.778	22336.74
844.103	22296.74
844.427	22215.16
844.751	22331.77
845.075	22111.89
845.399	22072.12
845.723	22004.1
846.047	22033.93
846.371	21859.92
846.695	21661.28
847.019	21655.18
847.343	21563.43
847.666	21581.51
847.99	21452.92
848.313	21389.2
848.637	21308.75
848.96	21252.03
849.284	21192.37
849.607	20998.47
849.931	21104.46
850.254	20852.26
850.577	20718.93
850.9	20638.03
851.223	20576.34
851.546	20513.29
851.869	20515.77
852.192	20608.43
852.515	20279.62
852.838	20337.7
853.161	20197.36
853.483	20057.71
853.806	19990.36
854.129	20050.7
854.451	19995.11
854.774	19857.03
855.096	19806.41
855.419	19791.05
855.741	19723.25
856.063	19568.68
856.385	19508.57
856.708	19427.22
857.03	19422.7
857.352	19385.63
857.674	19343.15
857.996	19215.92
858.318	19043.04
858.64	19144.51
858.961	19165.08
859.283	18932.09
859.605	18924.4
859.926	18996.72
860.248	18826.1
860.57	18725.54
860.891	18810.73
861.212	18721.25
861.534	18703.62
861.855	18637.41
862.176	18650.29
862.498	18654.35
862.819	18679.89
863.14	18617.07
863.461	18439.9
863.782	18524.41
864.103	18400.58
864.424	18366.68
864.745	18294.36
865.065	18277.41
865.386	18191.32
865.707	18281.03
866.027	18270.64
866.348	18049.62
866.668	18091.88
866.989	17995.84
867.309	17990.42
867.63	18042.62
867.95	18054.6
868.27	17844.66
868.59	17948.84
868.91	17951.55
869.23	17857.76
869.55	17813.92
869.87	17945.9
870.19	17777.54
870.51	17793.36
870.83	17739.35
871.15	17652.12
871.469	17634.49
871.789	17725.34
872.109	17706.58
872.428	17576.64
872.748	17674.94
873.067	17619.13
873.386	17540.26
873.706	17558.79
874.025	17469.07
874.344	17272.02
874.663	17493.03
874.982	17395.86
875.301	17430.88
875.62	17263.66
875.939	17285.58
876.258	17356.54
876.577	17213.94
876.896	17171
877.214	17202.19
877.533	17194.51
877.852	17195.18
878.17	17159.7
878.489	17208.97
878.807	17027.5
879.125	17096.88
879.444	17031.12
879.762	16907.06
880.08	17025.92
880.398	16893.04
880.716	16877.45
881.034	16897.79
881.352	16879.49
881.67	16805.36
881.988	16799.71
882.306	16653.05
882.624	16769.66
882.941	16615.31
883.259	16613.28
883.577	16565.6
883.894	16541.87
884.212	16477.69
884.529	16393.85
884.846	16304.13
885.164	16277.24
885.481	16293.51
885.798	16329.22
886.115	16216.68
886.432	16224.59
886.75	16227.75
887.067	16256
887.383	16199.28
887.7	16086.29
888.017	15979.17
888.334	15977.14
888.651	15911.83
888.967	15926.06
889.284	15790.47
889.6	15715
889.917	15691.95
890.233	15885.39
890.55	15756.8
890.866	15774.43
891.182	15568.11
891.498	15662.57
891.815	15472.74
892.131	15508.67
892.447	15437.49
892.763	15372.18
893.079	15281.11
893.395	15257.38
893.71	15242.92
894.026	15234.56
894.342	15228.23
894.657	15035.24
894.973	14983.94
895.289	15074.34
895.604	14950.72
895.92	14850.16
896.235	14778.07
896.55	14847
896.865	14742.37
897.181	14708.47
897.496	14611.97
897.811	14577.63
898.126	14524.97
898.441	14582.14
898.756	14489.04
899.071	14382.83
899.386	14419.66
899.7	14247.24
900.015	14296.05
900.33	14189.39
900.644	14139.9
900.959	14186.9
901.273	14080.01
901.588	14096.28
901.902	14009.05
902.216	13925.89
902.531	13893.12
902.845	13808.61
903.159	13716.18
903.473	13774.03
903.787	13612.23
904.101	13605.67
904.415	13545.56
904.729	13482.06
905.042	13441.61
905.356	13395.06
905.67	13376.53
905.984	13410.65
906.297	13280.48
906.611	13170.43
906.924	13162.75
907.237	13079.81
907.551	13047.72
907.864	12974.5
908.177	12955.75
908.491	12989.42
908.804	12906.71
909.117	12786.26
909.43	12678.01
909.743	12706.49
910.056	12612.25
910.368	12632.82
910.681	12514.85
910.994	12449.77
911.307	12360.73
911.619	12361.41
911.932	12380.85
912.244	12273.73
912.557	12305.14
912.869	12184.02
913.181	12188.99
913.494	12099.72
913.806	11991.03
914.118	11920.29
914.43	11896.57
914.742	11926.85
915.054	11774.54
915.366	11838.49
915.678	11726.85
915.99	11585.39
916.302	11577.7
916.613	11659.51
916.925	11588.1
917.236	11626.97
917.548	11456.13
917.859	11501.1
918.171	11419.97
918.482	11314.43
918.794	11231.27
919.105	11250.71
919.416	11213.19
919.727	11117.83
920.038	11106.98
920.349	10961.9
920.66	10964.39
920.971	10975.46
921.282	10928
921.593	10863.15
921.903	10791.06
922.214	10728.69
922.525	10709.7
922.835	10707.44
923.146	10600.1
923.456	10641.68
923.767	10506.55
924.077	10461.35
924.387	10506.55
924.697	10440.78
925.008	10341.13
925.318	10349.94
925.628	10276.04
925.938	10283.05
926.248	10205.54
926.558	10133.22
926.867	10083.51
927.177	10053.68
927.487	9954.02
927.796	9967.35
928.106	9933.91
928.416	9880.57
928.725	9861.59
929.034	9852.1
929.344	9875.38
929.653	9799.22
929.962	9654.82
930.271	9624.54
930.581	9671.99
930.89	9609.85
931.199	9466.57
931.508	9408.04
931.817	9430.87
932.125	9406.69
932.434	9281.04
932.743	9255.73
933.051	9218.67
933.36	9249.63
933.669	9130.54
933.977	9165.56
934.286	9101.16
934.594	9101.84
934.902	9093.25
935.21	9007.6
935.519	8962.18
935.827	8988.85
936.135	8877.89
936.443	8813.48
936.751	8779.81
937.059	8772.81
937.367	8673.15
937.674	8783.88
937.982	8703.43
938.29	8568.07
938.597	8627.27
938.905	8530.78
939.213	8532.81
939.52	8499.59
939.827	8490.78
940.135	8404.23
940.442	8345.25
940.749	8360.84
941.056	8307.06
941.363	8236.55
941.67	8197.45
941.977	8197.45
942.284	8167.62
942.591	8133.73
942.898	8114.74
943.205	8083.56
943.511	7996.56
943.818	7961.3
944.125	7909.78
944.431	7880.17
944.738	7893.06
945.044	7837.01
945.35	7771.02
945.657	7744.13
945.963	7747.75
946.269	7719.95
946.575	7679.28
946.881	7564.93
947.187	7548.21
947.493	7525.16
947.799	7484.7
948.105	7432.95
948.41	7372.84
948.716	7398.6
949.022	7380.07
949.327	7378.94
949.633	7247.87
949.938	7299.85
950.244	7277.03
950.549	7202.45
950.854	7168.55
951.16	7132.4
951.465	7132.62
951.77	7059.4
952.075	7088.56
952.38	6985.96
952.685	6968.79
952.99	6929.69
953.294	6932.18
953.599	6903.7
953.904	6884.49
954.209	6809.47
954.513	6843.14
954.818	6794.1
955.122	6772.86
955.426	6762.69
955.731	6669.36
956.035	6620.32
956.339	6597.72
956.643	6584.62
956.948	6516.37
957.252	6508.23
957.556	6544.39
957.86	6452.42
958.163	6458.52
958.467	6441.79
958.771	6437.95
959.075	6355.02
959.378	6314.34
959.682	6320.22
959.985	6300.55
960.289	6252.19
960.592	6233.66
960.896	6244.74
961.199	6167.68
961.502	6196.15
961.805	6125.64
962.108	6044.74
962.411	6059.66
962.714	6004.74
963.017	6019.43
963.32	6004.29
963.623	5972.43
963.926	5971.07
964.228	5924.97
964.531	5877.29
964.833	5897.85
965.136	5804.3
965.438	5784.86
965.741	5761.81
966.043	5759.55
966.345	5675.71
966.648	5692.44
966.95	5670.74
967.252	5664.87
967.554	5649.5
967.856	5588.71
968.158	5603.62
968.46	5570.86
968.761	5510.07
969.063	5490.63
969.365	5503.97
969.666	5467.13
969.968	5396.4
970.269	5381.03
970.571	5327.92
970.872	5339.9
971.174	5287.93
971.475	5303.97
971.776	5267.81
972.077	5236.85
972.378	5264.2
972.679	5176.06
972.98	5199.34
973.281	5167.7
973.582	5149.17
973.883	5081.6
974.183	5120.92
974.484	5075.5
974.785	5047.93
975.085	4996.63
975.386	5026.46
975.686	4999.35
975.986	4963.64
976.287	4919.35
976.587	4867.6
976.887	4885.9
977.187	4906.24
977.487	4820.37
977.787	4796.41
978.087	4786.92
978.387	4790.76
978.687	4819.92
978.987	4738.11
979.286	4705.12
979.586	4677.09
979.885	4649.75
980.185	4634.84
980.484	4589.64
980.784	4595.97
981.083	4583.99
981.382	4557.55
981.682	4582.18
981.981	4496.53
982.28	4486.59
982.579	4459.7
982.878	4469.19
983.177	4434.16
983.475	4397.78
983.774	4424.9
984.073	4369.08
984.372	4328.63
984.67	4311.91
984.969	4349.19
985.267	4302.87
985.566	4300.16
985.864	4283.21
986.162	4228.29
986.461	4213.6
986.759	4196.43
987.057	4177.45
987.355	4146.04
987.653	4156.2
987.951	4104.45
988.249	4089.31
988.547	4074.85
988.844	4025.36
989.142	4030.78
989.44	3972.71
989.737	3972.48
990.035	3957.11
990.332	3966.15
990.63	3930.9
990.927	3907.4
991.224	3925.02
991.521	3891.13
991.819	3877.57
992.116	3802.54
992.413	3835.53
992.71	3802.09
993.006	3809.09
993.303	3821.52
993.6	3776.55
993.897	3727.29
994.193	3778.59
994.49	3687.97
994.787	3667.18
995.083	3669.66
995.379	3643
995.676	3636.9
995.972	3632.6
996.268	3573.85
996.565	3590.12
996.861	3564.13
997.157	3554.86
997.453	3520.06
997.749	3503.34
998.044	3456.34
998.34	3434.19
998.636	3429.67
998.932	3402.55
999.227	3379.95
999.523	3376.56
999.818	3393.51
1000.114	3361.65
1000.409	3279.62
1000.704	3281.88
1001	3260.18
1001.295	3261.99
1001.59	3254.76
1001.885	3229.67
1002.18	3215.44
1002.475	3197.36
1002.77	3191.48
1003.065	3118.49
1003.359	3151.94
1003.654	3097.02
1003.949	3105.61
1004.243	3091.83
1004.538	3045.95
1004.832	3075.33
1005.127	3066.74
1005.421	3016.57
1005.715	3007.53
1006.009	2972.05
1006.304	2958.72
1006.598	2962.11
1006.892	2942.22
1007.186	2924.37
1007.48	2915.56
1007.773	2868.78
1008.067	2866.07
1008.361	2821.55
1008.655	2843.47
1008.948	2780.2
1009.242	2796.24
1009.535	2778.61
1009.829	2785.39
1010.122	2731.38
1010.415	2726.19
1010.708	2701.1
1011.001	2716.02
1011.295	2675.34
1011.588	2666.98
1011.881	2611.16
1012.173	2651.39
1012.466	2610.03
1012.759	2574.55
1013.052	2594.66
1013.344	2566.42
1013.637	2538.39
1013.93	2523.48
1014.222	2540.88
1014.514	2489.58
1014.807	2488.23
1015.099	2460.2
1015.391	2413.2
1015.683	2490.49
1015.976	2426.08
1016.268	2400.77
1016.56	2373.65
1016.851	2371.62
1017.143	2312.64
1017.435	2357.16
1017.727	2316.7
1018.018	2278.74
1018.31	2331.39
1018.602	2311.96
1018.893	2272.19
1019.185	2267.67
1019.476	2218.18
1019.767	2219.53
1020.058	2198.97
1020.35	2182.92
1020.641	2143.15
1020.932	2143.38
1021.223	2122.59
1021.514	2128.69
1021.804	2123.04
1022.095	2109.03
1022.386	2110.61
1022.677	2090.27
1022.967	2058.18
1023.258	2036.03
1023.548	2008.69
1023.839	2012.53
1024.129	1986.32
1024.419	2017.73
1024.709	1978.86
1025	1957.39
1025.29	1974.11
1025.58	1963.49
1025.87	1925.3
1026.16	1918.52
1026.449	1917.85
1026.739	1890.28
1027.029	1909.26
1027.319	1875.81
1027.608	1841.69
1027.898	1831.97
1028.187	1832.88
1028.477	1779.09
1028.766	1768.7
1029.055	1761.24
1029.344	1776.15
1029.634	1760.11
1029.923	1742.71
1030.212	1713.1
1030.501	1697.29
1030.79	1709.04
1031.078	1689.83
1031.367	1632.65
1031.656	1674.01
1031.945	1637.63
1032.233	1660.22
1032.522	1634.91
1032.81	1612.77
1033.099	1616.61
1033.387	1593.56
1033.675	1562.15
1033.963	1588.14
1034.251	1579.77
1034.54	1560.34
1034.828	1528.93
1035.116	1544.07
1035.403	1489.16
1035.691	1519.44
1035.979	1484.41
1036.267	1486.22
1036.554	1492.32
1036.842	1436.5
1037.129	1457.52
1037.417	1451.19
1037.704	1430.17
1037.992	1418.2
1038.279	1399.67
1038.566	1394.47
1038.853	1394.47
1039.14	1394.47
