Data from 7737_FLMS001491_007.txt Node
Date: Thu Apr 19 15:41:15 BST 2018
User: hsy
Spectrometer: FLMS00149
Trigger mode: 0
Integration Time (sec): 1.000000E-2
Scans to average: 10
Electric dark correction enabled: true
Nonlinearity correction enabled: false
Boxcar width: 0
XAxis mode: Wavelengths
Number of Pixels in Spectrum: 2048
>>>>>Begin Spectral Data<<<<<
341.393	-9.7
341.776	-9.7
342.16	-9.7
342.543	-30.04
342.927	-64.84
343.31	-62.58
343.693	-61.45
344.077	-60.78
344.46	-66.88
344.843	-60.32
345.226	-21.68
345.61	-33.21
345.993	-27.56
346.376	4.08
346.759	23.74
347.142	22.84
347.525	45.89
347.908	30.97
348.291	77.75
348.674	98.99
349.057	90.18
349.44	132.89
349.823	135.15
350.206	171.08
350.588	210.18
350.971	249.5
351.354	282.94
351.737	272.78
352.119	296.73
352.502	331.3
352.884	313
353.267	319.78
353.65	338.76
354.032	350.97
354.414	327.01
354.797	363.39
355.179	342.15
355.562	369.5
355.944	371.3
356.326	382.83
356.709	377.18
357.091	384.41
357.473	402.72
357.855	379.67
358.238	387.8
358.62	374.24
359.002	386.9
359.384	408.14
359.766	373.11
360.148	364.07
360.53	394.81
360.912	398.2
361.294	368.82
361.676	418.08
362.057	389.83
362.439	349.38
362.821	371.98
363.203	377.18
363.584	381.7
363.966	390.96
364.348	352.77
364.729	376.95
365.111	377.41
365.493	382.83
365.874	372.43
366.256	390.29
366.637	375.37
367.019	376.5
367.4	362.04
367.781	383.73
368.163	365.88
368.544	397.07
368.925	371.76
369.306	378.08
369.688	402.49
370.069	380.34
370.45	376.73
370.831	384.18
371.212	357.97
371.593	369.72
371.974	375.82
372.355	379.21
372.736	397.29
373.117	385.31
373.498	361.13
373.879	376.28
374.26	389.61
374.641	370.85
375.021	357.29
375.402	414.47
375.783	396.16
376.163	401.59
376.544	397.07
376.925	388.03
377.305	415.14
377.686	409.95
378.066	420.79
378.447	418.08
378.827	402.72
379.208	415.6
379.588	426.44
379.968	405.2
380.349	436.39
380.729	426.67
381.109	429.83
381.489	427.57
381.87	442.04
382.25	441.81
382.63	425.09
383.01	431.87
383.39	433.9
383.77	449.27
384.15	439.78
384.53	468.7
384.91	457.63
385.29	432.09
385.67	462.83
386.049	463.96
386.429	468.93
386.809	473
387.189	465.54
387.568	457.18
387.948	459.44
388.328	479.32
388.707	479.55
389.087	478.42
389.466	487.46
389.846	496.95
390.225	501.24
390.605	510.51
390.984	466.67
391.363	510.06
391.743	505.54
392.122	502.37
392.501	505.09
392.881	535.14
393.26	531.75
393.639	510.74
394.018	519.32
394.397	553.67
394.776	531.75
395.155	525.88
395.534	525.42
395.913	549.6
396.292	545.54
396.671	570.62
397.05	556.16
397.429	570.39
397.808	564.07
398.186	582.37
398.565	582.37
398.944	553.22
399.323	565.87
399.701	569.72
400.08	569.04
400.458	592.54
400.837	596.61
401.215	586.89
401.594	596.16
401.972	595.48
402.351	600.22
402.729	595.93
403.107	618.98
403.486	623.5
403.864	638.42
404.242	637.96
404.62	604.97
404.999	649.49
405.377	626.66
405.755	635.48
406.133	670.96
406.511	668.47
406.889	656.04
407.267	675.25
407.645	673.67
408.023	683.84
408.401	690.62
408.779	698.3
409.156	686.32
409.534	692.2
409.912	700.56
410.29	727.9
410.667	727
411.045	775.81
411.422	754.8
411.8	728.36
412.178	768.81
412.555	764.29
412.933	784.17
413.31	784.4
413.687	767.9
414.065	797.96
414.442	808.81
414.819	820.11
415.197	824.63
415.574	830.95
415.951	852.65
416.328	838.64
416.705	840.67
417.082	871.63
417.46	868.47
417.837	863.95
418.214	880.44
418.591	885.41
418.967	879.09
419.344	914.57
419.721	896.04
420.098	903.49
420.475	924.06
420.852	912.98
421.228	922.25
421.605	918.18
421.982	917.5
422.358	953.44
422.735	952.31
423.111	940.78
423.488	957.28
423.864	983.04
424.241	951.85
424.617	967.22
424.994	979.65
425.37	989.82
425.746	999.76
426.123	1008.12
426.499	1024.85
426.875	1026.65
427.251	1064.62
427.627	1082.7
428.003	1057.84
428.379	1102.36
428.756	1108.69
429.132	1146.42
429.507	1115.24
429.883	1110.04
430.259	1132.19
430.635	1147.55
431.011	1175.35
431.387	1174.9
431.763	1186.2
432.138	1199.98
432.514	1225.07
432.89	1243.37
433.265	1266.65
433.641	1228
434.016	1260.55
434.392	1275.01
434.767	1307.32
435.143	1305.97
435.518	1301.22
435.894	1329.24
436.269	1352.75
436.644	1373.76
437.02	1378.73
437.395	1401.56
437.77	1386.42
438.145	1407.43
438.52	1414.44
438.895	1425.74
439.271	1420.32
439.646	1462.35
440.021	1463.7
440.395	1475.46
440.77	1417.83
441.145	1478.62
441.52	1471.39
441.895	1501.67
442.27	1519.97
442.645	1495.34
443.019	1494.89
443.394	1533.31
443.769	1546.19
444.143	1563.59
444.518	1578.05
444.892	1574.44
445.267	1571.72
445.641	1609.01
446.016	1610.37
446.39	1611.95
446.764	1611.95
447.139	1613.08
447.513	1615.56
447.887	1645.62
448.262	1648.33
448.636	1651.5
449.01	1682.46
449.384	1712.51
449.758	1738.73
450.132	1715.45
450.506	1732.62
450.88	1753.64
451.254	1722
451.628	1773.3
452.002	1781.44
452.376	1810.14
452.75	1834.54
453.123	1840.64
453.497	1876.12
453.871	1871.38
454.244	1912.96
454.618	1939.4
454.992	1966.29
455.365	1983.69
455.739	2001.77
456.112	2012.39
456.486	2063.24
456.859	2048.55
457.232	2089.22
457.606	2141.88
457.979	2155.89
458.352	2186.62
458.725	2183.23
459.099	2204.7
459.472	2285.83
459.845	2272.95
460.218	2285.38
460.591	2344.36
460.964	2326.96
461.337	2375.09
461.71	2415.32
462.083	2448.09
462.456	2445.15
462.829	2469.1
463.201	2517.01
463.574	2503.23
463.947	2582.09
464.32	2613.28
464.692	2599.72
465.065	2632.04
465.438	2666.16
465.81	2681.98
466.183	2721.52
466.555	2801.97
466.928	2830
467.3	2822.09
467.672	2821.86
468.045	2929.43
468.417	2905.93
468.789	2957
469.161	2967.39
469.534	3065.92
469.906	3080.16
470.278	3104.11
470.65	3142.98
471.022	3208.52
471.394	3242.19
471.766	3242.64
472.138	3315.63
472.51	3366.25
472.882	3405.8
473.253	3480.37
473.625	3481.96
473.997	3605.8
474.369	3590.43
474.74	3614.61
475.112	3669.3
475.484	3759.69
475.855	3850.76
476.227	3850.31
476.598	3994.71
476.97	4032
477.341	4145.44
477.713	4159
478.084	4237.87
478.455	4316.06
478.827	4372.1
479.198	4498.88
479.569	4528.48
479.94	4606.22
480.311	4675.15
480.682	4765.76
481.053	4897.06
481.424	5015.7
481.795	5071.97
482.166	5158.07
482.537	5253.89
482.908	5369.59
483.279	5429.25
483.65	5534.56
484.021	5652.07
484.391	5738.85
484.762	5858.39
485.133	5889.58
485.503	5996.69
485.874	6228.78
486.244	6268.55
486.615	6442.56
486.985	6540.63
487.356	6662.66
487.726	6715.77
488.097	6935.88
488.467	7040.73
488.837	7173.16
489.207	7326.15
489.578	7493.38
489.948	7641.62
490.318	7783.99
490.688	7896.3
491.058	8077.32
491.428	8200.48
491.798	8313.92
492.168	8613.12
492.538	8688.15
492.908	8855.6
493.278	8963.17
493.648	9119.1
494.017	9287.23
494.387	9456.71
494.757	9660.1
495.126	9862.35
495.496	9937.83
495.866	10183.93
496.235	10441.1
496.605	10619.62
496.974	10768.54
497.344	10929.22
497.713	11147.97
498.082	11335.54
498.452	11553.16
498.821	11729.65
499.19	11883.09
499.559	12170.32
499.928	12349.07
500.298	12578.89
500.667	12792.45
501.036	12962.61
501.405	13252.77
501.774	13382.94
502.143	13620.9
502.512	13860.89
502.88	14082.81
503.249	14295.46
503.618	14539.97
503.987	14743.58
504.356	15026.74
504.724	15269.9
505.093	15424.02
505.462	15673.27
505.83	15882.08
506.199	16075.3
506.567	16496.98
506.936	16583.98
507.304	16981.04
507.672	17199.34
508.041	17379.67
508.409	17630.51
508.777	17908.47
509.145	18207.67
509.514	18276.6
509.882	18561.56
510.25	18748.22
510.618	19067.76
510.986	19208.32
511.354	19422.55
511.722	19744.81
512.09	19996.32
512.458	20084.46
512.826	20377.78
513.193	20519.47
513.561	20728.28
513.929	21007.6
514.297	21154.71
514.664	21367.81
515.032	21630.18
515.4	21862.04
515.767	22032.43
516.135	22205.31
516.502	22188.81
516.869	22652.07
517.237	22841
517.604	22758.96
517.972	23179.52
518.339	23304.71
518.706	23445.5
519.073	23622.9
519.44	23750.8
519.808	24159.83
520.175	24136.1
520.542	24454.29
520.909	24531.12
521.276	24781.51
521.643	24965.46
522.009	25200.93
522.376	25338.33
522.743	25585.78
523.11	25883.85
523.477	26090.18
523.843	26094.92
524.21	26540.11
524.577	26679.09
524.943	26853.55
525.31	26901.23
525.676	27351.39
526.043	27398.62
526.409	27451.95
526.776	27713.18
527.142	27894.42
527.508	27987.53
527.874	28337.57
528.241	28439.27
528.607	28446.95
528.973	28840.16
529.339	28703.89
529.705	29044.22
530.071	29205.57
530.437	29441.5
530.803	29457.54
531.169	29582.51
531.535	29642.4
531.901	29609.41
532.267	29844.2
532.632	30048.04
532.998	30067.7
533.364	30172.78
533.73	30273.34
534.095	30438.99
534.461	30381.81
534.826	30580.68
535.192	30580.45
535.557	30848.47
535.923	30869.48
536.288	30799.43
536.653	31030.84
537.019	30885.08
537.384	31049.37
537.749	31001.46
538.114	31098.63
538.479	30884.17
538.845	31078.74
539.21	31063.6
539.575	31266.31
539.94	31297.72
540.305	31560.31
540.67	31423.14
541.034	31215.92
541.399	31297.27
541.764	31449.36
542.129	31537.04
542.494	31438.51
542.858	31550.82
543.223	31482.12
543.587	31569.58
543.952	31523.71
544.316	31588.11
544.681	31573.2
545.045	31711.5
545.41	31631.27
545.774	31628.11
546.138	31645.96
546.503	31733.64
546.867	31585.17
547.231	31841.21
547.595	31774.32
547.959	31814.09
548.324	31807.99
548.688	31832.85
549.052	31952.62
549.416	31772.29
549.779	31718.95
550.143	31833.08
550.507	31909.46
550.871	32059.96
551.235	31925.73
551.599	32129.79
551.962	32096.8
552.326	32136.34
552.689	32185.38
553.053	32054.09
553.417	32104.71
553.78	32356.9
554.143	32232.84
554.507	32309
554.87	32355.32
555.234	32505.37
555.597	32305.61
555.96	32452.72
556.323	32520.51
556.686	32409.78
557.05	32757.8
557.413	32528.42
557.776	32485.49
558.139	32672.38
558.502	32703.56
558.865	32679.61
559.228	33049.99
559.59	32928.64
559.953	32858.59
560.316	33077.56
560.679	33112.82
561.041	33185.36
561.404	33396.65
561.767	33557.78
562.129	33509.87
562.492	33648.85
562.854	33628.28
563.217	33656.98
563.579	33788.28
563.941	33824.89
564.304	33965.45
564.666	34117.76
565.028	34140.13
565.39	34225.33
565.753	34427.36
566.115	34202.05
566.477	34488.82
566.839	34592.32
567.201	34752.77
567.563	34715.94
567.925	34954.12
568.287	34903.05
568.648	34968.36
569.01	35190.95
569.372	35316.6
569.734	35207
570.095	35378.52
570.457	35527.22
570.819	35501.91
571.18	35498.97
571.542	35655.35
571.903	35796.59
572.265	35777.83
572.626	35858.51
572.987	35795.01
573.349	36048.78
573.71	36215.56
574.071	36260.76
574.432	36408.1
574.794	36556.79
575.155	36491.03
575.516	36369.91
575.877	36486.51
576.238	36549.79
576.599	36568.32
576.96	36606.06
577.32	36657.13
577.681	36668.43
578.042	36931.02
578.403	36723.57
578.763	36621.2
579.124	36779.84
579.485	37102.99
579.845	37049.44
580.206	36869.1
580.566	36817.8
580.927	36876.11
581.287	36924.02
581.648	36789.56
582.008	36945.71
582.368	36891.25
582.728	36971.25
583.089	36858.93
583.449	36851.7
583.809	36892.83
584.169	36922.43
584.529	36808.54
584.889	36960.62
585.249	36759.5
585.609	36531.71
585.969	36827.07
586.329	36665.26
586.688	36817.8
587.048	36732.38
587.408	36557.47
587.768	36543.01
588.127	36518.6
588.487	36413.07
588.846	36853.96
589.206	36386.63
589.565	36301.66
589.925	36512.05
590.284	36312.51
590.643	36272.51
591.003	36339.85
591.362	36505.95
591.721	36284.94
592.08	36321.09
592.44	36471.15
592.799	36353.86
593.158	36292.62
593.517	36289.91
593.876	36331.94
594.235	36207.2
594.593	36370.13
594.952	36201.32
595.311	36144.83
595.67	36127.43
596.029	36351.6
596.387	36218.04
596.746	36335.33
597.104	36289.23
597.463	36039.97
597.822	36183.24
598.18	36129.69
598.538	35966.75
598.897	36277.03
599.255	36031.61
599.613	36431.37
599.972	36176.46
600.33	36248.55
600.688	36157.48
601.046	36258.04
601.404	36352.96
601.762	36157.93
602.12	36385.95
602.478	36382.56
602.836	36364.71
603.194	36226.86
603.552	36311.83
603.91	36205.84
604.268	36290.59
604.625	36399.51
604.983	36407.64
605.341	36135.11
605.698	36307.08
606.056	36559.05
606.413	36244.94
606.771	36630.24
607.128	36503.91
607.485	36373.3
607.843	36308.89
608.2	36531.03
608.557	36593.4
608.914	36582.78
609.272	36656.23
609.629	36743.45
609.986	36816.67
610.343	36862.1
610.7	37010.34
611.057	36949.1
611.414	36873.39
611.771	37087.17
612.127	36978.02
612.484	37098.25
612.841	37197.45
613.198	36959.04
613.554	37111.13
613.911	37174.18
614.267	37230.22
614.624	37151.13
614.98	37160.62
615.337	37550.21
615.693	37414.17
616.05	37533.94
616.406	37699.81
616.762	37578.24
617.118	37626.14
617.475	37551.57
617.831	37769.19
618.187	37738.91
618.543	37839.25
618.899	37986.81
619.255	37968.28
619.611	37858
619.967	38135.96
620.323	38156.52
620.678	37921.28
621.034	38050.99
621.39	37968.06
621.746	37999.69
622.101	38264.77
622.457	38133.47
622.812	38273.36
623.168	38309.06
623.523	38255.73
623.879	38312.23
624.234	38216.41
624.589	38194.26
624.945	38306.8
625.3	38425.67
625.655	38222.06
626.01	38361.72
626.365	38414.15
626.72	38347.71
627.075	38158.33
627.43	38308.39
627.785	38168.95
628.14	38260.48
628.495	38358.78
628.85	38383.19
629.205	38075.4
629.559	38366.24
629.914	38159.91
630.269	38173.93
630.623	37994.27
630.978	37916.76
631.332	38188.16
631.687	38080.82
632.041	38090.76
632.396	37998.56
632.75	37983.2
633.104	38093.02
633.459	37931.9
633.813	37915.63
634.167	37745.69
634.521	37879.7
634.875	37774.84
635.229	37711.56
635.583	37545.02
635.937	37576.88
636.291	37605.13
636.645	37515.86
636.999	37466.83
637.352	37616.88
637.706	37354.06
638.06	37415.98
638.413	37388.86
638.767	37206.27
639.121	37425.24
639.474	37155.42
639.828	37175.99
640.181	36999.49
640.534	37073.84
640.888	37071.13
641.241	36869.33
641.594	37016.22
641.947	36982.77
642.301	36893.73
642.654	36861.19
643.007	36712.04
643.36	36917.69
643.713	36754.3
644.066	36892.83
644.419	36792.95
644.771	36237.93
645.124	35801.56
645.477	35929.46
645.83	35683.82
646.182	35756.14
646.535	35734.67
646.888	35802.69
647.24	35758.85
647.593	35972.85
647.945	35710.26
648.298	35710.04
648.65	35551.62
649.002	35339.2
649.355	35164.06
649.707	34926.78
650.059	34994.8
650.411	35609.93
650.763	35825.51
651.115	36347.53
651.467	36181.44
651.819	36276.57
652.171	36377.81
652.523	36050.37
652.875	36184.6
653.227	36086.52
653.578	36316.35
653.93	36186.41
654.282	36151.38
654.633	36017.6
654.985	36135.11
655.337	36131.95
655.688	36119.06
656.039	36303.69
656.391	35929.92
656.742	36039.29
657.094	36057.37
657.445	36157.03
657.796	36225.5
658.147	36125.39
658.498	36106.41
658.849	36274.77
659.2	36134.43
659.551	36085.84
659.902	36211.94
660.253	36266.63
660.604	36315.22
660.955	36105.51
661.306	36177.37
661.656	36128.33
662.007	36227.08
662.358	36138.27
662.708	36278.61
663.059	36277.03
663.409	36131.72
663.76	36419.4
664.11	36383.69
664.461	36406.51
664.811	36475.44
665.161	36314.31
665.511	36289.68
665.862	36409.23
666.212	36510.24
666.562	36433.41
666.912	36308.21
667.262	36201.32
667.612	36426.17
667.962	36540.75
668.312	36330.13
668.662	36537.13
669.011	36456.23
669.361	36409.23
669.711	36438.38
670.06	36551.6
670.41	36426.4
670.76	36260.53
671.109	36502.33
671.459	36468.43
671.808	36312.73
672.157	36528.77
672.507	36262.56
672.856	36321.09
673.205	36243.81
673.554	36292.62
673.904	36141.66
674.253	36506.17
674.602	36204.49
674.951	35757.49
675.3	35591.39
675.649	36189.57
675.998	36098.95
676.346	36081.1
676.695	36211.94
677.044	35927.21
677.393	35900.77
677.741	36205.62
678.09	36071.38
678.438	35895.79
678.787	35981.44
679.135	35811.95
679.484	35726.31
679.832	35801.78
680.181	35618.74
680.529	35790.03
680.877	35470.95
681.225	35436.6
681.573	35816.47
681.922	35515.69
682.27	35497.39
682.618	35378.07
682.966	35342.81
683.314	35232.08
683.661	35215.59
684.009	35157.28
684.357	35052.88
684.705	34978.08
685.053	34953.67
685.4	34710.51
685.748	34786.9
686.095	34569.5
686.443	34486.34
686.79	34535.15
687.138	34459.22
687.485	34349.17
687.832	34178.32
688.18	34250.41
688.527	34021.72
688.874	33972.45
689.221	33928.84
689.568	33788.96
689.915	33689.75
690.262	33682.74
690.609	33521.17
690.956	33351.91
691.303	33330.44
691.65	33217.45
691.997	33157.79
692.344	32953.05
692.69	32853.61
693.037	32873.05
693.383	32613.39
693.73	32713.73
694.077	32463.34
694.423	32419.95
694.769	32383.8
695.116	32246.17
695.462	31979.51
695.808	31953.07
696.155	32061.32
696.501	31735
696.847	31820.87
697.193	31545.4
697.539	31535.68
697.885	31291.62
698.231	31161.91
698.577	31175.47
698.923	31039.88
699.269	30770.73
699.614	30785.42
699.96	30649.15
700.306	30547.91
700.651	30307.47
700.997	30230.86
701.342	30160.35
701.688	30062.73
702.033	29849.62
702.379	29984.76
702.724	29813.24
703.069	29643.75
703.415	29420.71
703.76	29473.14
704.105	29310.88
704.45	29368.51
704.795	29223.43
705.14	29073.15
705.485	29097.55
705.83	28845.58
706.175	28828.63
706.52	28776.21
706.865	28714.97
707.209	28518.13
707.554	28526.04
707.899	28436.33
708.243	28352.49
708.588	28293.28
708.932	28067.3
709.277	28080.41
709.621	28024.81
709.966	27775.33
710.31	27871.82
710.654	27661.43
710.998	27706.4
711.342	27707.99
711.687	27475.22
712.031	27361.33
712.375	27331.5
712.719	27390.93
713.063	27273.65
713.407	27371.95
713.75	27339.86
714.094	27114.33
714.438	27038.4
714.782	27028.91
715.125	26870.95
715.469	27140.32
715.812	26900.32
716.156	26846.77
716.499	26793.21
716.843	26852.19
717.186	26728.8
717.53	26892.41
717.873	26808.57
718.216	26577.39
718.559	26667.11
718.902	26492.2
719.246	26553.89
719.589	26433.44
719.932	26430.96
720.275	26400.45
720.617	26502.82
720.96	26512.54
721.303	26451.3
721.646	26361.58
721.989	26223.96
722.331	26413.33
722.674	26270.28
723.016	26358.87
723.359	26302.37
723.701	26337.17
724.044	26216.73
724.386	26174.47
724.729	26248.82
725.071	26215.14
725.413	26226.44
725.755	26157.97
726.097	26038.43
726.439	26074.36
726.782	25947.35
727.124	26240.23
727.465	26085.43
727.807	26005.88
728.149	26086.79
728.491	25949.84
728.833	26124.75
729.175	26074.58
729.516	26063.74
729.858	26160.23
730.199	26175.15
730.541	26109.84
730.882	26061.93
731.224	26252.43
731.565	26217.86
731.906	26176.05
732.248	26347.57
732.589	26239.1
732.93	26078.42
733.271	26194.13
733.612	26270.51
733.953	26398.64
734.294	26188.7
734.635	26214.69
734.976	26391.86
735.317	26303.28
735.658	26329.94
735.999	26263.28
736.339	26477.96
736.68	26504.63
737.021	26448.13
737.361	26384.18
737.702	26640.44
738.042	26502.82
738.383	26644.96
738.723	26797.05
739.063	26507.34
739.404	26786.43
739.744	26799.99
740.084	26792.53
740.424	26839.53
740.764	26870.95
741.104	27025.52
741.444	26969.47
741.784	27040.21
742.124	27226.19
742.464	27335.34
742.804	27439.07
743.143	27330.37
743.483	27562.91
743.823	27387.99
744.162	27486.52
744.502	27644.94
744.841	27757.25
745.181	27930.81
745.52	27821.2
745.86	28048.09
746.199	28154.53
746.538	28396.1
746.877	28446.27
747.216	28493.95
747.556	28589.54
747.895	28763.33
748.234	28852.59
748.573	29017.33
748.911	28952.25
749.25	29183.65
749.589	29210.55
749.928	29476.98
750.267	29692.11
750.605	29744.54
750.944	29901.37
751.283	30114.48
751.621	30216.85
751.96	30283.74
752.298	30435.82
752.636	30757.17
752.975	30751.75
753.313	30872.65
753.651	31264.73
753.989	31256.14
754.327	31461.79
754.666	31501.56
755.004	31791.27
755.342	31904.03
755.679	32119.62
756.017	32045.05
756.355	32299.73
756.693	32417.92
757.031	32731.58
757.368	32575.88
757.706	32833.5
758.044	32986.94
758.381	33244.34
758.719	33260.38
759.056	33543.09
759.394	33562.97
759.731	33417.44
760.068	33662.63
760.405	33849.29
760.743	33866.02
761.08	34052
761.417	34036.63
761.754	34270.98
762.091	34366.12
762.428	34250.41
762.765	34348.72
763.102	34570.18
763.438	34496.51
763.775	34456.74
764.112	34611.99
764.449	34697.86
764.785	34751.19
765.122	34812.88
765.458	34586.22
765.795	34754.81
766.131	34963.39
766.467	34907.34
766.804	34980.34
767.14	34982.37
767.476	35062.82
767.812	34902.37
768.148	35173.1
768.485	35114.8
768.821	34891.53
769.157	34887.68
769.492	34965.87
769.828	35012.88
770.164	34762.49
770.5	34867.12
770.836	34878.87
771.171	34862.83
771.507	34854.01
771.842	34746.9
772.178	34784.41
772.513	34839.55
772.849	34689.72
773.184	34714.58
773.519	34612.44
773.855	34459
774.19	34360.69
774.525	34388.26
774.86	34381.48
775.195	34448.15
775.53	34399.56
775.865	34175.84
776.2	34087.71
776.535	33827.6
776.87	33913.47
777.205	33882.29
777.539	33635.74
777.874	33830.31
778.209	33467.38
778.543	33622.18
778.878	33446.82
779.212	33529.08
779.547	33313.26
779.881	33347.39
780.215	32905.14
780.55	33075.98
780.884	32869.43
781.218	32875.31
781.552	33012.48
781.886	32819.94
782.22	32710.79
782.554	32530.91
782.888	32303.35
783.222	32289.33
783.556	32130.47
783.889	32078.94
784.223	31998.49
784.557	31924.82
784.89	31919.85
785.224	31633.53
785.557	31610.93
785.891	31467.21
786.224	31615.68
786.558	31432.63
786.891	31306.99
787.224	31266.54
787.557	30951.29
787.891	31066.77
788.224	30881.69
788.557	30797.4
788.89	30760.11
789.223	30718.98
789.556	30451.64
789.888	30417.52
790.221	30400.12
790.554	30210.07
790.887	30274.02
791.219	30128.26
791.552	30014.82
791.884	29923.3
792.217	29848.72
792.549	29727.37
792.882	29551.55
793.214	29494.61
793.546	29594.04
793.879	29367.6
794.211	29203.54
794.543	29334.16
794.875	29149.53
795.207	29064.33
795.539	28956.31
795.871	29005.13
796.203	28800.84
796.535	28567.85
796.867	28749.09
797.198	28476.55
797.53	28513.84
797.862	28271.59
798.193	28399.95
798.525	28222.77
798.856	28260.97
799.188	27912.5
799.519	27830.02
799.85	27912.5
800.182	27776.68
800.513	27872.95
800.844	27358.84
801.175	27730.36
801.506	27693.3
801.837	27475.9
802.168	27446.75
802.499	27433.42
802.83	27178.96
803.161	27092.86
803.491	27122.92
803.822	27202.24
804.153	26860.1
804.483	26774.23
804.814	26663.49
805.145	26695.13
805.475	26839.76
805.805	26814.68
806.136	26685.19
806.466	26501.69
806.796	26376.72
807.126	26280.45
807.457	26279.78
807.787	26275.93
808.117	26091.08
808.447	26136.95
808.777	26118.88
809.107	25948.26
809.436	25811.54
809.766	25853.35
810.096	25835.72
810.426	25732.67
810.755	25833.46
811.085	25741.94
811.414	25660.36
811.744	25548.49
812.073	25554.6
812.403	25462.4
812.732	25292.91
813.061	25459.46
813.39	25268.95
813.719	25148.73
814.049	25288.84
814.378	25300.37
814.707	25093.14
815.036	25182.18
815.365	24934.5
815.693	24859.93
816.022	24877.33
816.351	24884.78
816.68	24557.56
817.008	24739.02
817.337	24635.75
817.665	24597.56
817.994	24651.57
818.322	24652.7
818.651	24449.09
818.979	24464.23
819.307	24440.28
819.636	24395.76
819.964	24235.54
820.292	24374.74
820.62	24182.88
820.948	24266.49
821.276	24352.59
821.604	24187.63
821.932	24367.28
822.259	24157.57
822.587	24182.66
822.915	24290.9
823.243	24202.09
823.57	24030.12
823.898	24287.74
824.225	24155.76
824.553	24236.21
824.88	24202.99
825.207	24246.83
825.535	24200.28
825.862	24306.49
826.189	24216.55
826.516	24421.52
826.843	24376.77
827.17	24373.61
827.497	24349.66
827.824	24314.4
828.151	24328.64
828.478	24267.85
828.805	24370.22
829.131	24380.39
829.458	24356.21
829.785	24149.89
830.111	24296.78
830.438	24320.5
830.764	24343.55
831.09	24413.84
831.417	24311.47
831.743	24356.89
832.069	24292.48
832.395	24260.85
832.722	24431.24
833.048	24096.56
833.374	24281.41
833.7	24107.63
834.026	24235.99
834.351	24221.07
834.677	24378.58
835.003	24367.73
835.329	24254.97
835.654	24202.32
835.98	24033.05
836.306	24100.4
836.631	24080.96
836.956	24196.21
837.282	24190.11
837.607	23970.91
837.932	24087.74
838.258	24050
838.583	24010.23
838.908	23943.11
839.233	23949.89
839.558	23899.5
839.883	23822.44
840.208	23598.26
840.533	23707.19
840.858	23782.44
841.182	23736.57
841.507	23548.55
841.832	23470.81
842.156	23532.28
842.481	23464.26
842.805	23419.51
843.13	23393.07
843.454	23372.05
843.778	23359.63
844.103	23267.65
844.427	23206.41
844.751	23267.42
845.075	23077.37
845.399	23024.49
845.723	22930.03
846.047	22992.4
846.371	22745.86
846.695	22850.94
847.019	22581.57
847.343	22532.75
847.666	22471.51
847.99	22337.73
848.313	22307.22
848.637	22391.74
848.96	22246.43
849.284	22202.82
849.607	22072.88
849.931	21934.58
850.254	21817.75
850.577	21677.18
850.9	21520.13
851.223	21541.82
851.546	21453.24
851.869	21344.54
852.192	21342.73
852.515	21157.2
852.838	21177.54
853.161	21081.49
853.483	21126.92
853.806	20948.16
854.129	20808.51
854.451	20856.64
854.774	20663.65
855.096	20602.18
855.419	20549.98
855.741	20590.89
856.063	20413.49
856.385	20420.27
856.708	20402.87
857.03	20317.67
857.352	20233.61
857.674	20184.12
857.996	19985.03
858.318	19897.12
858.64	20051.24
858.961	19930.11
859.283	19870.9
859.605	19797.91
859.926	19719.95
860.248	19772.6
860.57	19601.31
860.891	19590.23
861.212	19477.02
861.534	19471.59
861.855	19378.71
862.176	19477.24
862.498	19477.69
862.819	19451.71
863.14	19323.57
863.461	19339.17
863.782	19335.1
864.103	19200.87
864.424	19182.33
864.745	19204.93
865.065	19024.6
865.386	19077.7
865.707	19070.7
866.027	19048.33
866.348	18900.76
866.668	18918.61
866.989	18955.9
867.309	18764.49
867.63	18799.07
867.95	18844.72
868.27	18751.61
868.59	18793.64
868.91	18755.68
869.23	18723.82
869.55	18637.49
869.87	18749.58
870.19	18555.46
870.51	18586.87
870.83	18528.34
871.15	18477.95
871.469	18365.18
871.789	18558.62
872.109	18439.76
872.428	18336.03
872.748	18378.29
873.067	18359.98
873.386	18392.52
873.706	18324.28
874.025	18176.03
874.344	18136.26
874.663	18144.85
874.982	18206.09
875.301	18131.29
875.62	18070.95
875.939	17933.1
876.258	18095.13
876.577	17922.48
876.896	17866.44
877.214	17951.86
877.533	17891.97
877.852	17936.49
878.17	17874.57
878.489	17915.7
878.807	17745.99
879.125	17839.77
879.444	17757.97
879.762	17590.06
880.08	17734.92
880.398	17670.96
880.716	17620.12
881.034	17488.37
881.352	17526.78
881.67	17495.6
881.988	17496.28
882.306	17358.65
882.624	17398.2
882.941	17370.4
883.259	17308.03
883.577	17214.7
883.894	17208.83
884.212	17195.04
884.529	17093.12
884.846	17067.59
885.164	17107.36
885.481	17140.58
885.798	17024.43
886.115	16889.06
886.432	16961.38
886.75	16874.6
887.067	16874.15
887.383	16733.36
887.7	16725.68
888.017	16615.85
888.334	16706.92
888.651	16677.32
888.967	16666.92
889.284	16482.74
889.6	16482.07
889.917	16324.78
890.233	16495.85
890.55	16428.51
890.866	16384.89
891.182	16257.67
891.498	16259.93
891.815	16101.06
892.131	16162.75
892.447	16075.52
892.763	16007.05
893.079	15979.71
893.395	15900.84
893.71	15861.52
894.026	15833.72
894.342	15801.41
894.657	15755.31
894.973	15741.75
895.289	15711.92
895.604	15584.69
895.92	15540.85
896.235	15545.37
896.55	15426.95
896.865	15393.06
897.181	15390.8
897.496	15328.65
897.811	15266.05
898.126	15179.28
898.441	15178.37
898.756	15090.69
899.071	15003.01
899.386	15084.36
899.7	14939.28
900.015	14897.25
900.33	14746.52
900.644	14724.15
900.959	14735.9
901.273	14671.72
901.588	14631.04
901.902	14603.25
902.216	14449.35
902.531	14468.11
902.845	14362.8
903.159	14266.53
903.473	14230.6
903.787	14255.46
904.101	14186.31
904.415	14132.3
904.729	14052.98
905.042	14063.37
905.356	13991.28
905.67	14013.2
905.984	13942.7
906.297	13930.95
906.611	13784.06
906.924	13732.53
907.237	13645.98
907.551	13624.06
907.864	13535.93
908.177	13565.53
908.491	13492.54
908.804	13397.4
909.117	13319.44
909.43	13260.91
909.743	13285.99
910.056	13236.5
910.368	13131.19
910.681	13125.77
910.994	13081.93
911.307	12956.28
911.619	12883.29
911.932	12906.79
912.244	12797.87
912.557	12810.98
912.869	12624.77
913.181	12596.07
913.494	12682.62
913.806	12535.73
914.118	12522.4
914.43	12485.11
914.742	12448.05
915.054	12342.29
915.366	12346.36
915.678	12239.92
915.99	12173.03
916.302	12093.93
916.613	12100.71
916.925	12036.08
917.236	12072.01
917.548	11907.72
917.859	11959.02
918.171	11918.8
918.482	11756.32
918.794	11698.46
919.105	11735.98
919.416	11704.57
919.727	11591.12
920.038	11484.68
920.349	11477.68
920.66	11450.11
920.971	11495.76
921.282	11394.06
921.593	11311.36
921.903	11321.07
922.214	11270.23
922.525	11178.25
922.835	11157.91
923.146	11042.66
923.456	11034.75
923.767	11032.04
924.077	10932.38
924.387	10954.3
924.697	10874.08
925.008	10806.51
925.318	10791.59
925.628	10806.28
925.938	10679.73
926.248	10601.54
926.558	10554.99
926.867	10481.09
927.177	10476.57
927.487	10480.19
927.796	10405.84
928.106	10347.76
928.416	10343.24
928.725	10283.36
929.034	10192.74
929.344	10243.13
929.653	10194.1
929.962	10073.65
930.271	10120.2
930.581	10020.77
930.89	9959.98
931.199	9883.6
931.508	9869.36
931.817	9805.18
932.125	9793.65
932.434	9713.66
932.743	9650.61
933.051	9657.84
933.36	9645.41
933.669	9565.64
933.977	9529.03
934.286	9500.1
934.594	9478.86
934.902	9440.67
935.21	9354.8
935.519	9377.39
935.827	9306.89
936.135	9225.31
936.443	9164.29
936.751	9130.4
937.059	9210.62
937.367	9113.22
937.674	9122.26
937.982	9017.4
938.29	8952.1
938.597	8983.05
938.905	8885.2
939.213	8849.72
939.52	8764.53
939.827	8807.69
940.135	8784.42
940.442	8692.21
940.749	8676.4
941.056	8659.45
941.363	8587.36
941.67	8626
941.977	8500.81
942.284	8450.19
942.591	8533.58
942.898	8445.22
943.205	8405.44
943.511	8347.59
943.818	8337.65
944.125	8225.79
944.431	8241.61
944.738	8209.29
945.044	8129.29
945.35	8120.93
945.657	8066.02
945.963	8071.44
946.269	7976.98
946.575	7989.18
946.881	7913.7
947.187	7947.38
947.493	7840.03
947.799	7789.41
948.105	7766.14
948.41	7651.56
948.716	7738.57
949.022	7638.46
949.327	7652.92
949.633	7560.04
949.938	7522.98
950.244	7604.56
950.549	7458.35
950.854	7444.11
951.16	7469.87
951.465	7399.59
951.77	7387.62
952.075	7361.63
952.38	7320.05
952.685	7315.98
952.99	7263.78
953.294	7207.51
953.599	7204.34
953.904	7103.33
954.209	7050.22
954.513	7122.09
954.818	7108.53
955.122	7055.2
955.426	6998.02
955.731	6949.66
956.035	6903.34
956.339	6944.01
956.643	6896.78
956.948	6857.23
957.252	6788.08
957.556	6745.83
957.86	6727.52
958.163	6746.5
958.467	6673.28
958.771	6705.6
959.075	6648.43
959.378	6589.45
959.682	6593.97
959.985	6543.12
960.289	6544.02
960.592	6482.56
960.896	6464.93
961.199	6499.28
961.502	6405.95
961.805	6393.52
962.108	6338.6
962.411	6297.02
962.714	6285.5
963.017	6270.81
963.32	6275.1
963.623	6213.18
963.926	6241.21
964.228	6206.86
964.531	6116.46
964.833	6055.45
965.136	6042.12
965.438	6033.08
965.741	5994.43
966.043	5960.76
966.345	5942.91
966.648	5933.42
966.95	5965.73
967.252	5885.74
967.554	5901.78
967.856	5840.31
968.158	5797.6
968.46	5777.49
968.761	5788.11
969.063	5694.78
969.365	5709.24
969.666	5685.29
969.968	5634.89
970.269	5563.71
970.571	5601.45
970.872	5587.66
971.174	5566.87
971.475	5540.21
971.776	5461.34
972.077	5439.65
972.378	5410.95
972.679	5415.01
972.98	5429.25
973.281	5372.53
973.582	5369.82
973.883	5326.65
974.183	5296.15
974.484	5244.4
974.785	5269.48
975.085	5244.17
975.386	5231.74
975.686	5144.96
975.986	5132.53
976.287	5141.8
976.587	5107.45
976.887	5110.39
977.187	5097.51
977.487	5071.29
977.787	5033.55
978.087	4993.1
978.387	4982.71
978.687	4951.97
978.987	4916.95
979.286	4871.52
979.586	4907.91
979.885	4876.72
980.185	4845.99
980.484	4815.25
980.784	4776.84
981.083	4748.14
981.382	4752.21
981.682	4744.75
981.981	4720.79
982.28	4684.41
982.579	4631.76
982.878	4659.33
983.177	4612.77
983.475	4610.51
983.774	4586.11
984.073	4556.28
984.372	4522.83
984.67	4510.18
984.969	4485.77
985.267	4483.29
985.566	4472.89
985.864	4467.69
986.162	4453.46
986.461	4398.99
986.759	4379.33
987.057	4339.34
987.355	4333.46
987.653	4319.22
987.951	4251.43
988.249	4277.87
988.547	4257.76
988.844	4246.68
989.142	4287.36
989.44	4168.49
989.737	4183.18
990.035	4118.32
990.332	4095.27
990.63	4097.53
990.927	4130.08
991.224	4072.68
991.521	4071.77
991.819	4043.98
992.116	4002.39
992.413	4001.26
992.71	3960.59
993.006	3938.22
993.303	3899.8
993.6	3911.1
993.897	3909.52
994.193	3870.19
994.49	3893.92
994.787	3852.57
995.083	3816.86
995.379	3765.11
995.676	3759.92
995.972	3735.28
996.268	3737.54
996.565	3716.98
996.861	3689.86
997.157	3688.28
997.453	3641.5
997.749	3624.78
998.044	3596.76
998.34	3598.34
998.636	3573.48
998.932	3547.49
999.227	3525.12
999.523	3498.23
999.818	3502.07
1000.114	3472.69
1000.409	3481.28
1000.704	3412.13
1001	3443.54
1001.295	3382.98
1001.59	3384.78
1001.885	3349.98
1002.18	3349.53
1002.475	3332.13
1002.77	3307.95
1003.065	3303.43
1003.359	3321.28
1003.654	3226.6
1003.949	3244.22
1004.243	3221.17
1004.538	3158.58
1004.832	3177.56
1005.127	3131.01
1005.421	3110.89
1005.715	3106.37
1006.009	3096.66
1006.304	3082.19
1006.598	3072.48
1006.892	3058.69
1007.186	3017.34
1007.48	2989.54
1007.773	2954.29
1008.067	3006.26
1008.361	2945.47
1008.655	2938.69
1008.948	2970.56
1009.242	2927.39
1009.535	2866.38
1009.829	2826.15
1010.122	2832.48
1010.415	2828.41
1010.708	2819.6
1011.001	2814.63
1011.295	2801.97
1011.588	2762.65
1011.881	2741.86
1012.173	2697.57
1012.466	2688.31
1012.759	2719.26
1013.052	2722.2
1013.344	2673.84
1013.637	2660.06
1013.93	2621.64
1014.222	2618.7
1014.514	2576.44
1014.807	2571.47
1015.099	2575.99
1015.391	2538.25
1015.683	2520.17
1015.976	2507.97
1016.268	2522.21
1016.56	2468.65
1016.851	2460.97
1017.143	2441.31
1017.435	2433.17
1017.727	2433.17
1018.018	2401.76
1018.31	2375.54
1018.602	2363.79
1018.893	2347.3
1019.185	2375.09
1019.476	2337.81
1019.767	2324.47
1020.058	2323.57
1020.35	2263.68
1020.641	2242.67
1020.932	2227.75
1021.223	2264.81
1021.514	2231.59
1021.804	2198.6
1022.095	2166.96
1022.386	2168.32
1022.677	2153.86
1022.967	2142.78
1023.258	2109.79
1023.548	2092.61
1023.839	2101.43
1024.129	2080.64
1024.419	2051.71
1024.709	2019.17
1025	2000.64
1025.29	2012.84
1025.58	2015.78
1025.87	1990.7
1026.16	1975.78
1026.449	1958.83
1026.739	1943.01
1027.029	1960.64
1027.319	1938.95
1027.608	1907.08
1027.898	1885.39
1028.187	1893.07
1028.477	1874.54
1028.766	1828.21
1029.055	1833.64
1029.344	1832.06
1029.634	1863.69
1029.923	1788.67
1030.212	1793.64
1030.501	1775.56
1030.79	1775.11
1031.078	1753.19
1031.367	1737.37
1031.656	1721.1
1031.945	1703.7
1032.233	1701.21
1032.522	1693.53
1032.81	1687.65
1033.099	1656.69
1033.387	1655.79
1033.675	1629.8
1033.963	1639.52
1034.251	1629.12
1034.54	1624.15
1034.828	1582.35
1035.116	1573.53
1035.403	1587.54
1035.691	1566.07
1035.979	1547.32
1036.267	1545.96
1036.554	1527.66
1036.842	1518.62
1037.129	1487.88
1037.417	1475
1037.704	1480.43
1037.992	1497.6
1038.279	1436.13
1038.566	1406.98
1038.853	1406.98
1039.14	1406.98
