Data from 7737_FLMS001491_009.txt Node
Date: Thu Apr 19 15:41:20 BST 2018
User: hsy
Spectrometer: FLMS00149
Trigger mode: 0
Integration Time (sec): 1.000000E-2
Scans to average: 10
Electric dark correction enabled: true
Nonlinearity correction enabled: false
Boxcar width: 0
XAxis mode: Wavelengths
Number of Pixels in Spectrum: 2048
>>>>>Begin Spectral Data<<<<<
341.393	-5.86
341.776	-5.86
342.16	-5.86
342.543	-58.52
342.927	-55.35
343.31	-72.3
343.693	-77.27
344.077	-65.75
344.46	-39.53
344.843	-77.05
345.226	-43.37
345.61	-30.49
345.993	-10.61
346.376	-0.66
346.759	-2.02
347.142	25.55
347.525	47.24
347.908	52.22
348.291	84.31
348.674	99.45
349.057	110.29
349.44	150.07
349.823	150.52
350.206	183.51
350.588	216.96
350.971	232.55
351.354	263.74
351.737	283.62
352.119	277.75
352.502	293.79
352.884	303.06
353.267	322.04
353.65	350.51
354.032	345.77
354.414	338.08
354.797	347.8
355.179	362.94
355.562	357.07
355.944	352.55
356.326	365.2
356.709	381.47
357.091	365.43
357.473	388.03
357.855	370.4
358.238	381.92
358.62	388.7
359.002	375.15
359.384	377.18
359.766	378.54
360.148	384.86
360.53	376.95
360.912	395.26
361.294	401.36
361.676	390.96
362.057	361.81
362.439	380.8
362.821	383.51
363.203	367.01
363.584	377.86
363.966	355.71
364.348	378.08
364.729	369.27
365.111	373.34
365.493	363.17
365.874	361.36
366.256	374.47
366.637	358.65
367.019	368.14
367.4	363.17
367.781	375.37
368.163	381.7
368.544	369.95
368.925	359.55
369.306	364.3
369.688	350.97
370.069	376.05
370.45	367.46
370.831	408.36
371.212	373.11
371.593	363.62
371.974	391.19
372.355	382.6
372.736	377.63
373.117	408.14
373.498	388.7
373.879	381.47
374.26	359.1
374.641	375.82
375.021	371.08
375.402	395.03
375.783	423.51
376.163	412.21
376.544	409.04
376.925	386.9
377.305	398.65
377.686	421.02
378.066	409.95
378.447	402.49
378.827	400.91
379.208	408.59
379.588	401.59
379.968	411.98
380.349	419.89
380.729	399.55
381.109	418.08
381.489	433.22
381.87	435.48
382.25	424.64
382.63	423.28
383.01	427.35
383.39	426.22
383.77	437.29
384.15	429.16
384.53	444.3
384.91	453.34
385.29	449.72
385.67	433.45
386.049	471.19
386.429	463.28
386.809	468.48
387.189	462.15
387.568	465.09
387.948	473.22
388.328	436.84
388.707	471.41
389.087	491.53
389.466	479.78
389.846	484.3
390.225	509.61
390.605	497.4
390.984	483.17
391.363	483.17
391.743	518.64
392.122	512.09
392.501	547.34
392.881	528.36
393.26	508.7
393.639	496.5
394.018	491.75
394.397	525.42
394.776	520.23
395.155	514.12
395.534	525.65
395.913	518.87
396.292	547.12
396.671	547.8
397.05	564.52
397.429	561.13
397.808	543.28
398.186	538.98
398.565	555.93
398.944	554.12
399.323	553.9
399.701	569.72
400.08	566.78
400.458	556.84
400.837	578.08
401.215	581.02
401.594	571.52
401.972	574.69
402.351	583.95
402.729	590.73
403.107	587.34
403.486	609.49
403.864	590.96
404.242	618.3
404.62	608.36
404.999	634.12
405.377	623.73
405.755	629.6
406.133	655.36
406.511	634.35
406.889	626.66
407.267	648.13
407.645	665.76
408.023	646.55
408.401	682.93
408.779	667.34
409.156	682.26
409.534	690.39
409.912	673.67
410.29	703.05
410.667	732.42
411.045	747.34
411.422	726.77
411.8	742.82
412.178	747.79
412.555	736.04
412.933	745.53
413.31	761.35
413.687	780.11
414.065	776.49
414.442	787.79
414.819	783.5
415.197	794.8
415.574	824.85
415.951	800.67
416.328	816.26
416.705	780.56
417.082	807
417.46	854.68
417.837	847.22
418.214	855.13
418.591	860.1
418.967	861.01
419.344	850.61
419.721	848.13
420.098	869.14
420.475	882.7
420.852	873.89
421.228	892.19
421.605	879.09
421.982	895.13
422.358	911.4
422.735	920.44
423.111	935.81
423.488	937.62
423.864	941.46
424.241	946.43
424.617	964.73
424.994	943.27
425.37	951.4
425.746	967.67
426.123	995.92
426.499	977.39
426.875	993.43
427.251	1012.64
427.627	1003.83
428.003	1042.02
428.379	1045.41
428.756	1039.99
429.132	1096.93
429.507	1082.02
429.883	1065.75
430.259	1103.71
430.635	1091.74
431.011	1129.7
431.387	1156.14
431.763	1138.97
432.138	1130.15
432.514	1162.24
432.89	1190.49
433.265	1206.76
433.641	1215.8
434.016	1209.25
434.392	1218.74
434.767	1252.18
435.143	1292.64
435.518	1265.52
435.894	1290.6
436.269	1305.06
436.644	1302.35
437.02	1313.88
437.395	1313.65
437.77	1355.91
438.145	1343.26
438.52	1356.36
438.895	1378.28
439.271	1358.85
439.646	1373.54
440.021	1397.72
440.395	1414.67
440.77	1395.91
441.145	1432.74
441.52	1440.65
441.895	1481.33
442.27	1457.38
442.645	1434.33
443.019	1460.09
443.394	1486.75
443.769	1483.59
444.143	1482.91
444.518	1477.26
444.892	1530.6
445.267	1535.12
445.641	1532.63
446.016	1519.3
446.39	1558.39
446.764	1554.1
447.139	1582.57
447.513	1559.07
447.887	1579.18
448.262	1590.48
448.636	1635.9
449.01	1616.47
449.384	1623.7
449.758	1636.36
450.132	1672.29
450.506	1702.79
450.88	1673.64
451.254	1662.8
451.628	1719.29
452.002	1719.29
452.376	1758.84
452.75	1750.93
453.123	1801.1
453.497	1790.93
453.871	1829.8
454.244	1849.91
454.618	1842
454.992	1887.65
455.365	1902.34
455.739	1926.07
456.112	1926.97
456.486	1961.77
456.859	2012.16
457.232	1981.66
457.606	2042.22
457.979	2053.75
458.352	2096.46
458.725	2104.37
459.099	2126.29
459.472	2148.21
459.845	2204.02
460.218	2206.51
460.591	2232.95
460.964	2282.89
461.337	2284.25
461.71	2283.34
462.083	2313.4
462.456	2325.83
462.829	2368.31
463.201	2386.84
463.574	2429.78
463.947	2448.31
464.32	2533.28
464.692	2488.76
465.065	2518.14
465.438	2572.6
465.81	2590.68
466.183	2608.76
466.555	2649.44
466.928	2698.47
467.3	2698.93
467.672	2726.95
468.045	2777.57
468.417	2781.18
468.789	2784.35
469.161	2848.07
469.534	2877.23
469.906	2971.01
470.278	2974.17
470.65	3018.24
471.022	3032.7
471.394	3083.1
471.766	3138.01
472.138	3171.46
472.51	3251.91
472.882	3276.09
473.253	3244
473.625	3336.42
473.997	3424.78
474.369	3431.56
474.74	3464.33
475.112	3502.07
475.484	3583.87
475.855	3635.4
476.227	3686.24
476.598	3768.95
476.97	3857.99
477.341	3842.62
477.713	3990.64
478.084	4005.33
478.455	4097.53
478.827	4153.13
479.198	4262.73
479.569	4303.18
479.94	4418.43
480.311	4462.72
480.682	4523.51
481.053	4650.06
481.424	4779.78
481.795	4808.93
482.166	4855.48
482.537	4911.07
482.908	5074.68
483.279	5146.55
483.65	5298.41
484.021	5393.09
484.391	5425.63
484.762	5544.95
485.133	5589.25
485.503	5662.24
485.874	5819.3
486.244	5956.47
486.615	6045.05
486.985	6161.89
487.356	6299.28
487.726	6412.05
488.097	6576.56
488.467	6646.39
488.837	6758.93
489.207	6907.18
489.578	7100.62
489.948	7143.1
490.318	7322.99
490.688	7416.09
491.058	7618.8
491.428	7772.92
491.798	7895.4
492.168	8088.16
492.538	8198.89
492.908	8382.39
493.278	8476.63
493.648	8613.8
494.017	8792.1
494.387	8954.58
494.757	9090.4
495.126	9281.58
495.496	9460.78
495.866	9635.02
496.235	9712.08
496.605	9987.1
496.974	10099.86
497.344	10337.14
497.713	10524.94
498.082	10724.7
498.452	10938.48
498.821	11185.26
499.19	11237.46
499.559	11437.23
499.928	11673.15
500.298	11883.32
500.667	12125.57
501.036	12156.3
501.405	12402.63
501.774	12629.74
502.143	12861.82
502.512	13061.14
502.88	13340
503.249	13423.84
503.618	13754.23
503.987	13841.91
504.356	14170.26
504.724	14455.91
505.093	14539.52
505.462	14782.45
505.83	15065.83
506.199	15257.24
506.567	15481.87
506.936	15720.73
507.304	16037.78
507.672	16259.7
508.041	16364.1
508.409	16738.56
508.777	16915.73
509.145	17208.15
509.514	17251.09
509.882	17578.53
510.25	17672.32
510.618	17981.01
510.986	18217.16
511.354	18383.94
511.722	18629.81
512.09	18965.17
512.458	18936.24
512.826	19306.4
513.193	19404.48
513.561	19604.24
513.929	19764.69
514.297	20108.41
514.664	20314.73
515.032	20455.97
515.4	20763.31
515.767	20877.21
516.135	21096.18
516.502	20994.94
516.869	21441.94
517.237	21556.28
517.604	21522.61
517.972	21982.49
518.339	22028.36
518.706	22284.17
519.073	22331.63
519.44	22544.73
519.808	22870.6
520.175	22911.05
520.542	23070.14
520.909	23265.39
521.276	23416.35
521.643	23606.63
522.009	23819.95
522.376	23948.54
522.743	24153.96
523.11	24414.97
523.477	24673.72
523.843	24687.05
524.21	25097.89
524.577	25181.05
524.943	25346.01
525.31	25381.04
525.676	25769.96
526.043	26036.84
526.409	26137.86
526.776	26368.59
527.142	26447.45
527.508	26604.29
527.874	26794.11
528.241	26913.2
528.607	26910.72
528.973	27212.63
529.339	27180.77
529.705	27421.21
530.071	27743.92
530.437	27750.92
530.803	27876.8
531.169	28107.98
531.535	27942.1
531.901	28222.77
532.267	28273.17
532.632	28454.18
532.998	28495.99
533.364	28629.54
533.73	28601.75
534.095	28912.02
534.461	28824.79
534.826	29048.06
535.192	29032.25
535.557	29211.9
535.923	29227.04
536.288	29290.77
536.653	29358.79
537.019	29332.12
537.384	29242.18
537.749	29406.02
538.114	29441.73
538.479	29421.39
538.845	29549.97
539.21	29334.16
539.575	29407.15
539.94	29557.43
540.305	29593.59
540.67	29498.45
541.034	29673.58
541.399	29608.5
541.764	29777.08
542.129	29628.39
542.494	29769.17
542.858	29933.46
543.223	29721.27
543.587	29978.66
543.952	29828.38
544.316	29799.46
544.681	29772.79
545.045	30023.41
545.41	30014.82
545.774	29934.37
546.138	29910.87
546.503	29933.01
546.867	30032.44
547.231	30137.53
547.595	30034.7
547.959	30186.57
548.324	30193.57
548.688	30136.17
549.052	30109.96
549.416	29984.76
549.779	30134.59
550.143	30159.67
550.507	30291.87
550.871	30253.23
551.235	30261.14
551.599	30402.15
551.962	30399.44
552.326	30251.42
552.689	30356.05
553.053	30306.34
553.417	30373.23
553.78	30526.44
554.143	30586.33
554.507	30406.45
554.87	30633.33
555.234	30837.85
555.597	30505.43
555.96	30766.21
556.323	30677.63
556.686	30665.2
557.05	30896.15
557.413	30837.17
557.776	30974.79
558.139	31043.72
558.502	31123.04
558.865	31040.78
559.228	31195.8
559.59	31290.49
559.953	31147.44
560.316	31518.96
560.679	31352.86
561.041	31568.45
561.404	31679.86
561.767	31705.4
562.129	31681.22
562.492	31928.89
562.854	31899.06
563.217	31924.82
563.579	31911.49
563.941	32198.49
564.304	32184.7
564.666	32415.66
565.028	32430.12
565.39	32452.04
565.753	32615.2
566.115	32670.12
566.477	32698.14
566.839	32757.57
567.201	32975.19
567.563	32939.94
567.925	33093.83
568.287	33144.45
568.648	33279.59
569.01	33355.3
569.372	33599.58
569.734	33465.8
570.095	33513.94
570.457	33696.76
570.819	33719.13
571.18	33654.27
571.542	33973.58
571.903	33861.04
572.265	34119.34
572.626	34201.37
572.987	34236.18
573.349	34351.43
573.71	34446.79
574.071	34539.67
574.432	34574.25
574.794	34813.11
575.155	34706.45
575.516	34575.83
575.877	34638.65
576.238	34821.92
576.599	34774.02
576.96	34752.77
577.32	34866.89
577.681	34828.02
578.042	35060.34
578.403	34964.97
578.763	34995.03
579.124	34930.4
579.485	35187.11
579.845	35108.7
580.206	35039.54
580.566	35112.76
580.927	35004.74
581.287	35232.31
581.648	35011.97
582.008	35197.05
582.368	35125.87
582.728	35304.17
583.089	35040
583.449	35143.72
583.809	35081.13
584.169	35152.31
584.529	35028.47
584.889	35216.49
585.249	34892.88
585.609	34935.82
585.969	35075.02
586.329	34831.64
586.688	35000.9
587.048	34780.79
587.408	34819.66
587.768	34670.06
588.127	34784.86
588.487	34700.8
588.846	34960.45
589.206	34586.9
589.565	34691.08
589.925	34717.07
590.284	34591.42
590.643	34597.3
591.003	34764.52
591.362	34761.36
591.721	34590.52
592.08	34618.99
592.44	34826.67
592.799	34717.52
593.158	34559.11
593.517	34481.37
593.876	34588.48
594.235	34510.52
594.593	34468.26
594.952	34668.93
595.311	34516.39
595.67	34391.88
596.029	34557.3
596.387	34618.31
596.746	34645.66
597.104	34374.7
597.463	34429.62
597.822	34582.38
598.18	34456.06
598.538	34364.99
598.897	34639.56
599.255	34206.12
599.613	34645.88
599.972	34416.28
600.33	34388.49
600.688	34423.06
601.046	34486.56
601.404	34682.94
601.762	34553.91
602.12	34644.75
602.478	34526.56
602.836	34557.75
603.194	34383.74
603.552	34486.79
603.91	34525.66
604.268	34626.67
604.625	34520.01
604.983	34539.22
605.341	34532.67
605.698	34575.38
606.056	34798.2
606.413	34591.19
606.771	34765.88
607.128	34776.5
607.485	34567.01
607.843	34656.73
608.2	34792.55
608.557	35017.4
608.914	34828.25
609.272	35019.43
609.629	35073.67
609.986	35190.95
610.343	35033.22
610.7	35349.82
611.057	35172.2
611.414	35260.1
611.771	35308.01
612.127	35428.91
612.484	35468.69
612.841	35624.39
613.198	35400.21
613.554	35351.63
613.911	35737.38
614.267	35659.42
614.624	35502.13
614.98	35696.7
615.337	35948.22
615.693	35975.79
616.05	35881.33
616.406	36040.42
616.762	35945.06
617.118	35979.18
617.475	35886.75
617.831	36064.38
618.187	36054.89
618.543	36120.65
618.899	36400.19
619.255	36314.54
619.611	36360.41
619.967	36444.25
620.323	36427.3
620.678	36440.19
621.034	36347.76
621.39	36363.35
621.746	36375.1
622.101	36650.12
622.457	36445.61
622.812	36564.48
623.168	36590.24
623.523	36583.91
623.879	36641.99
624.234	36449.68
624.589	36583.91
624.945	36532.61
625.3	36648.54
625.655	36587.98
626.01	36626.17
626.365	36665.94
626.72	36439.73
627.075	36430.92
627.43	36505.49
627.785	36466.17
628.14	36526.29
628.495	36537.58
628.85	36616.68
629.205	36429.11
629.559	36578.04
629.914	36446.51
630.269	36413.07
630.623	36334.88
630.978	36211.72
631.332	36376.46
631.687	36344.6
632.041	36154.54
632.396	36231.83
632.75	36232.73
633.104	36197.48
633.459	36086.3
633.813	36142.79
634.167	36017.82
634.521	36173.53
634.875	36187.99
635.229	35918.62
635.583	35777.38
635.937	35766.31
636.291	35761.33
636.645	35730.15
636.999	35596.37
637.352	35798.62
637.706	35594.78
638.06	35585.75
638.413	35715.23
638.767	35501.68
639.121	35621.22
639.474	35231.86
639.828	35384.62
640.181	35412.42
640.534	35421.68
640.888	35235.25
641.241	35021.01
641.594	35117.73
641.947	35244.96
642.301	35193.21
642.654	35205.87
643.007	35150.5
643.36	35195.25
643.713	35058.53
644.066	35220.78
644.419	34745.09
644.771	34493.57
645.124	34200.92
645.477	34237.53
645.83	34154.82
646.182	34156.18
646.535	34146.46
646.888	34294.93
647.24	34034.6
647.593	34382.39
647.945	34199.34
648.298	34137.42
648.65	33878.67
649.002	33735.17
649.355	33593.48
649.707	33349.87
650.059	33387.61
650.411	34018.55
650.763	34288.83
651.115	34717.52
651.467	34675.71
651.819	34681.81
652.171	34488.15
652.523	34432.1
652.875	34460.35
653.227	34442.5
653.578	34599.1
653.93	34498.99
654.282	34462.16
654.633	34359.79
654.985	34456.06
655.337	34573.57
655.688	34482.05
656.039	34666.45
656.391	34165.67
656.742	34431.65
657.094	34395.72
657.445	34419
657.796	34616.05
658.147	34474.81
658.498	34633.45
658.849	34662.38
659.2	34393.23
659.551	34223.52
659.902	34500.58
660.253	34291.09
660.604	34535.15
660.955	34367.92
661.306	34490.18
661.656	34494.7
662.007	34577.86
662.358	34519.11
662.708	34585.32
663.059	34661.48
663.409	34362.73
663.76	34532.21
664.11	34521.82
664.461	34631.19
664.811	34634.13
665.161	34661.48
665.511	34550.52
665.862	34655.83
666.212	34766.33
666.562	34724.3
666.912	34741.47
667.262	34558.65
667.612	34595.26
667.962	34635.94
668.312	34511.88
668.662	34792.09
669.011	34550.74
669.361	34767.69
669.711	34595.49
670.06	34602.95
670.41	34586.45
670.76	34546.9
671.109	34783.73
671.459	34492.89
671.808	34549.16
672.157	34587.58
672.507	34372.67
672.856	34434.36
673.205	34463.51
673.554	34564.08
673.904	34393.23
674.253	34700.8
674.602	34474.81
674.951	34001.15
675.3	33758.9
675.649	34506.9
675.998	34269.62
676.346	34374.93
676.695	34359.11
677.044	34108.95
677.393	34295.61
677.741	34367.7
678.09	34284.31
678.438	34073.47
678.787	34240.47
679.135	34216.52
679.484	33986.92
679.832	34038.44
680.181	33950.31
680.529	33851.78
680.877	33753.02
681.225	33828.5
681.573	34119.34
681.922	33746.92
682.27	33623.76
682.618	33711.9
682.966	33586.48
683.314	33577.44
683.661	33502.41
684.009	33256.54
684.357	33223.1
684.705	33214.73
685.053	33220.16
685.4	33125.02
685.748	32973.16
686.095	32998.69
686.443	32887.06
686.79	32794.63
687.138	32834.18
687.485	32649.1
687.832	32587.18
688.18	32595.77
688.527	32410.69
688.874	32566.16
689.221	32342.67
689.568	32168.43
689.915	32167.3
690.262	32105.16
690.609	31966.63
690.956	31765.73
691.303	31761.21
691.65	31781.78
691.997	31647.09
692.344	31398.74
692.69	31391.05
693.037	31369.13
693.383	31088.69
693.73	31241.68
694.077	30938.64
694.423	30886.89
694.769	30868.36
695.116	30860.9
695.462	30572.77
695.808	30572.09
696.155	30539.55
696.501	30174.36
696.847	30218.88
697.193	30012.33
697.539	30054.14
697.885	29868.83
698.231	29672.68
698.577	29687.14
698.923	29606.47
699.269	29493.93
699.614	29354.95
699.96	29226.82
700.306	29168.29
700.651	29039.25
700.997	28913.15
701.342	28838.35
701.688	28776.88
702.033	28658.92
702.379	28647.85
702.724	28257.35
703.069	28467.97
703.415	28060.97
703.76	28087.41
704.105	28062.78
704.45	27987.3
704.795	27746.4
705.14	27691.04
705.485	27695.78
705.83	27492.4
706.175	27644.48
706.52	27428.67
706.865	27354.55
707.209	27067.78
707.554	27098.96
707.899	27103.26
708.243	26969.93
708.588	26984.62
708.932	26782.59
709.277	26742.14
709.621	26603.83
709.966	26475.93
710.31	26581.69
710.654	26334.46
710.998	26398.64
711.342	26273.67
711.687	26289.72
712.031	26169.72
712.375	26131.53
712.719	26087.24
713.063	26053.11
713.407	26110.97
713.75	26020.12
714.094	26009.73
714.438	25861.48
714.782	25716.4
715.125	25751.43
715.469	25795.04
715.812	25609.51
716.156	25639.57
716.499	25587.82
716.843	25589.4
717.186	25456.75
717.53	25576.52
717.873	25466.92
718.216	25456.97
718.559	25434.37
718.902	25180.59
719.246	25306.47
719.589	25290.42
719.932	25123.65
720.275	25336.75
720.617	25280.25
720.96	25221.72
721.303	25209.07
721.646	25306.47
721.989	25094.95
722.331	25147.83
722.674	25066.7
723.016	25182.63
723.359	24948.28
723.701	24975.85
724.044	24946.48
724.386	24899.02
724.729	24935.18
725.071	24911.9
725.413	24932.24
725.755	24847.04
726.097	24829.42
726.439	24784.67
726.782	24717.56
727.124	24873.71
727.465	24937.21
727.807	24811.57
728.149	24848.85
728.491	24796.65
728.833	24819.93
729.175	24842.75
729.516	24772.02
729.858	24730.44
730.199	24847.04
730.541	24767.27
730.882	24748.52
731.224	24905.57
731.565	24850.21
731.906	24807.95
732.248	24894.27
732.589	24846.14
732.93	24733.15
733.271	24867.61
733.612	24829.42
733.953	24933.37
734.294	24927.49
734.635	24771.79
734.976	25011.56
735.317	24905.57
735.658	24881.62
735.999	24883.88
736.339	24998.45
736.68	25018.34
737.021	24996.19
737.361	25034.38
737.702	25220.82
738.042	25075.29
738.383	25113.48
738.723	25308.05
739.063	25256.07
739.404	25370.42
739.744	25358.9
740.084	25358.9
740.424	25405.67
740.764	25542.85
741.104	25688.38
741.444	25601.15
741.784	25565.22
742.124	25720.24
742.464	25788.71
742.804	25770.86
743.143	25817.19
743.483	25951.65
743.823	26025.32
744.162	26106.67
744.502	26168.14
744.841	26205.2
745.181	26375.82
745.52	26451.3
745.86	26557.96
746.199	26649.26
746.538	26675.47
746.877	26872.75
747.216	26961.34
747.556	27047.21
747.895	27097.61
748.234	27290.6
748.573	27370.14
748.911	27422.8
749.25	27554.77
749.589	27765.39
749.928	27755.22
750.267	28069.33
750.605	28159.5
750.944	28242.66
751.283	28256.9
751.621	28509.32
751.96	28591.8
752.298	28867.5
752.636	28860.05
752.975	29015.07
753.313	29048.06
753.651	29522.85
753.989	29457.77
754.327	29684.43
754.666	29672.23
755.004	29940.24
755.342	30042.39
755.679	30256.17
756.017	30341.14
756.355	30562.15
756.693	30630.85
757.031	30929.6
757.368	30916.49
757.706	31140.21
758.044	31295.46
758.381	31376.59
758.719	31528.22
759.056	31702.68
759.394	31802.34
759.731	31632.63
760.068	31843.24
760.405	32074.43
760.743	31990.36
761.08	32273.74
761.417	32403.91
761.754	32322.78
762.091	32461.76
762.428	32457.24
762.765	32538.37
763.102	32874.63
763.438	32812.71
763.775	32912.14
764.112	32875.53
764.449	32947.4
764.785	33021.07
765.122	32963.67
765.458	33038.92
765.795	33104.68
766.131	33242.76
766.467	33229.87
766.804	33200.05
767.14	33235.75
767.476	33127.73
767.812	33205.02
768.148	33333.6
768.485	33406.37
768.821	33259.7
769.157	33233.72
769.492	33321.62
769.828	33321.62
770.164	33192.81
770.5	33277.11
770.836	33335.86
771.171	33183.32
771.507	33199.59
771.842	33130.89
772.178	33162.53
772.513	33023.78
772.849	33085.92
773.184	33042.76
773.519	32982.42
773.855	32991.46
774.19	32782.43
774.525	32855.87
774.86	32855.2
775.195	32839.38
775.53	32604.13
775.865	32653.39
776.2	32378.37
776.535	32274.42
776.87	32318.49
777.205	32235.1
777.539	32257.02
777.874	32273.29
778.209	31963.69
778.543	31969.79
778.878	31914.88
779.212	31735
779.547	31652.97
779.881	31688.22
780.215	31490.03
780.55	31544.5
780.884	31407.78
781.218	31346.53
781.552	31492.97
781.886	31229.93
782.22	31145.18
782.554	31048.69
782.888	30814.57
783.222	30750.62
783.556	30603.5
783.889	30572.09
784.223	30516.73
784.557	30272.66
784.89	30486.22
785.224	30122.61
785.557	30205.1
785.891	30123.74
786.224	30050.75
786.558	30086.45
786.891	29867.7
787.224	29643.75
787.557	29595.62
787.891	29606.92
788.224	29534.38
788.557	29440.82
788.89	29389.52
789.223	29316.53
789.556	29095.52
789.888	29169.87
790.221	28924
790.554	28839.48
790.887	28785.7
791.219	28724.91
791.552	28731.69
791.884	28560.17
792.217	28481.53
792.549	28436.78
792.882	28248.99
793.214	28025.49
793.546	28193.17
793.879	28016.23
794.211	27743.24
794.543	27976.45
794.875	27871.82
795.207	27824.37
795.539	27698.72
795.871	27720.64
796.203	27588.44
796.535	27332.18
796.867	27437.48
797.198	27273.42
797.53	27275.46
797.862	27092.86
798.193	27101.22
798.525	27004.73
798.856	27058.96
799.188	26829.59
799.519	26768.35
799.85	26615.13
800.182	26731.74
800.513	26721.12
800.844	26377.17
801.175	26582.37
801.506	26550.05
801.837	26388.25
802.168	26210.17
802.499	26359.32
802.83	26002.72
803.161	26058.76
803.491	25951.87
803.822	26170.63
804.153	25871.2
804.483	25700.13
804.814	25608.61
805.145	25642.5
805.475	25664.88
805.805	25531.55
806.136	25544.65
806.466	25334.04
806.796	25396.41
807.126	25326.35
807.457	25113.25
807.787	25263.76
808.117	25136.75
808.447	25002.07
808.777	25039.13
809.107	24917.1
809.436	24822.64
809.766	24835.97
810.096	24851.34
810.426	24711.23
810.755	24648.18
811.085	24567.28
811.414	24612.25
811.744	24599.14
812.073	24472.37
812.403	24402.99
812.732	24249.77
813.061	24479.14
813.39	24175.42
813.719	24155.31
814.049	24192.82
814.378	23995.32
814.707	23897.01
815.036	23996.45
815.365	23977.46
815.693	23904.47
816.022	23794.19
816.351	23698.83
816.68	23613.4
817.008	23690.01
817.337	23355.56
817.665	23485.27
817.994	23414.77
818.322	23506.97
818.651	23409.12
818.979	23331.6
819.307	23431.71
819.636	23352.62
819.964	23242.79
820.292	23292.51
820.62	23191.95
820.948	23332.73
821.276	23480.3
821.604	23306.75
821.932	23363.69
822.259	23304.03
822.587	23189.23
822.915	23188.78
823.243	23158.95
823.57	23044.15
823.898	23256.35
824.225	23252.06
824.553	23291.38
824.88	23191.49
825.207	23323.69
825.535	23187.2
825.862	23256.58
826.189	23081.89
826.516	23433.75
826.843	23401.88
827.17	23506.51
827.497	23361.21
827.824	23394.88
828.151	23340.87
828.478	23273.3
828.805	23446.63
829.131	23304.94
829.458	23350.36
829.785	23161.89
830.111	23232.85
830.438	23391.49
830.764	23290.7
831.09	23296.35
831.417	23277.14
831.743	23531.15
832.069	23347.42
832.395	23247.99
832.722	23274.66
833.048	23271.72
833.374	23246.86
833.7	23097.49
834.026	23228.56
834.351	23252.51
834.677	23270.59
835.003	23154.89
835.329	23209.57
835.654	23156.69
835.98	23074.89
836.306	23186.98
836.631	23117.82
836.956	23188.1
837.282	23148.56
837.607	22973.42
837.932	22966.64
838.258	23004.83
838.583	23024.95
838.908	22928.22
839.233	22955.79
839.558	22864.27
839.883	22759.42
840.208	22733.65
840.533	22636.93
840.858	22755.57
841.182	22659.98
841.507	22674.9
841.832	22530.95
842.156	22590.15
842.481	22569.82
842.805	22556.71
843.13	22404.4
843.454	22548.12
843.778	22345.64
844.103	22323.72
844.427	22380.44
844.751	22231.97
845.075	22207.79
845.399	22101.13
845.723	22010.28
846.047	22059.1
846.371	21830.17
846.695	21794.02
847.019	21768.71
847.343	21632.67
847.666	21604.42
847.99	21499.79
848.313	21323.75
848.637	21380.69
848.96	21330.07
849.284	21210.53
849.607	21141.83
849.931	21007.82
850.254	20939.12
850.577	20757.43
850.9	20733.03
851.223	20632.47
851.546	20522.86
851.869	20405.58
852.192	20592.69
852.515	20351.57
852.838	20334.62
853.161	20347.5
853.483	20170.11
853.806	20053.05
854.129	20039.04
854.451	20044.68
854.774	19864.58
855.096	19790.68
855.419	19693.28
855.741	19667.75
856.063	19614.64
856.385	19661.19
856.708	19557.24
857.03	19442.21
857.352	19471.37
857.674	19363.8
857.996	19229.34
858.318	19236.34
858.64	19180.98
858.961	19173.52
859.283	19064.82
859.605	18966.75
859.926	18971.72
860.248	18889.23
860.57	18838.16
860.891	18901.66
861.212	18694.89
861.534	18684.49
861.855	18694.21
862.176	18584.61
862.498	18638.85
862.819	18581.9
863.14	18557.04
863.461	18548.23
863.782	18492.86
864.103	18427.33
864.424	18365.18
864.745	18435.69
865.065	18287.44
865.386	18283.38
865.707	18261
866.027	18265.52
866.348	18241.12
866.668	18096.26
866.989	18183.72
867.309	18064.4
867.63	18077.96
867.95	18178.97
868.27	17961.12
868.59	18089.93
868.91	18012.2
869.23	17937.62
869.55	17846.32
869.87	17957.73
870.19	17849.04
870.51	17825.31
870.83	17815.14
871.15	17602.26
871.469	17650.17
871.789	17706.44
872.109	17763.84
872.428	17640.23
872.748	17695.59
873.067	17539.21
873.386	17534.69
873.706	17592.55
874.025	17509.16
874.344	17442.27
874.663	17462.38
874.982	17408.14
875.301	17445.21
875.62	17397.3
875.939	17206.34
876.258	17284.08
876.577	17273.23
876.896	17230.97
877.214	17274.59
877.533	17171.31
877.852	17184.42
878.17	17131.77
878.489	17190.3
878.807	17154.59
879.125	17104.42
879.444	16986.23
879.762	17023.75
880.08	17013.35
880.398	16866.69
880.716	16878.67
881.034	16876.63
881.352	16832.34
881.67	16665.34
881.988	16700.37
882.306	16735.62
882.624	16678.9
882.941	16603.65
883.259	16573.36
883.577	16520.94
883.894	16473.48
884.212	16486.36
884.529	16444.55
884.846	16386.02
885.164	16413.14
885.481	16342.18
885.798	16433.48
886.115	16263.32
886.432	16252.47
886.75	16183.77
887.067	16123.21
887.383	16084.34
887.7	16163.2
888.017	15993.04
888.334	16046.6
888.651	16004.57
888.967	15863.1
889.284	15847.28
889.6	15760.5
889.917	15715.76
890.233	15737.45
890.55	15682.99
890.866	15693.61
891.182	15580.4
891.498	15570.68
891.815	15495.43
892.131	15425.15
892.447	15375.2
892.763	15286.84
893.079	15288.88
893.395	15234.19
893.71	15236
894.026	15162.1
894.342	15101.99
894.657	15053.86
894.973	15014.31
895.289	15038.04
895.604	14955.55
895.92	14913.75
896.235	14877.36
896.55	14847.08
896.865	14756.69
897.181	14713.3
897.496	14766.86
897.811	14645.5
898.126	14554.89
898.441	14574.77
898.756	14428.79
899.071	14388.11
899.386	14436.92
899.7	14270.6
900.015	14216.36
900.33	14115.8
900.644	14142.24
900.959	14284.61
901.273	14047.78
901.588	14065.18
901.902	14001.91
902.216	13887.78
902.531	13913.55
902.845	13850.27
903.159	13755.81
903.473	13666.55
903.787	13570.96
904.101	13640.79
904.415	13630.16
904.729	13475.37
905.042	13429.49
905.356	13317.63
905.67	13392.88
905.984	13338.87
906.297	13286.44
906.611	13120.12
906.924	13159.44
907.237	13155.15
907.551	13083.51
907.864	12985.44
908.177	12933.69
908.491	12911.54
908.804	12860.92
909.117	12804.2
909.43	12709.06
909.743	12650.3
910.056	12712
910.368	12596.52
910.681	12541.61
910.994	12469.06
911.307	12465.45
911.619	12367.82
911.932	12373.7
912.244	12209.64
912.557	12265.23
912.869	12154.5
913.181	12138
913.494	12146.81
913.806	12047.61
914.118	11859.82
914.43	11873.15
914.742	11843.32
915.054	11830.66
915.366	11806.48
915.678	11705.7
915.99	11774.39
916.302	11611.46
916.613	11546.83
916.925	11552.25
917.236	11578.01
917.548	11490.56
917.859	11455.76
918.171	11375.99
918.482	11254.18
918.794	11222.32
919.105	11183.9
919.416	11053.28
919.727	11085.82
920.038	11111.81
920.349	10949.78
920.66	10959.95
920.971	10975.77
921.282	10904.81
921.593	10838.15
921.903	10733.52
922.214	10716.34
922.525	10658.94
922.835	10679.28
923.146	10581.66
923.456	10545.5
923.767	10453.75
924.077	10477.93
924.387	10414.43
924.697	10357.03
925.008	10355.45
925.318	10308.9
925.628	10331.72
925.938	10216.69
926.248	10116.13
926.558	10081.56
926.867	10055.57
927.177	10032.74
927.487	9973.76
927.796	9921.56
928.106	9986.87
928.416	9929.02
928.725	9821.22
929.034	9806.76
929.344	9777.16
929.653	9774.22
929.962	9616.03
930.271	9600.67
930.581	9615.58
930.89	9569.25
931.199	9438.41
931.508	9395.47
931.817	9492.65
932.125	9402.93
932.434	9311.86
932.743	9271.63
933.051	9202.71
933.36	9227.12
933.669	9163.84
933.977	9184.18
934.286	9136.27
934.594	9050.85
934.902	8945.99
935.21	8895.15
935.519	8903.73
935.827	8918.42
936.135	8809.27
936.443	8772.66
936.751	8800.23
937.059	8791.87
937.367	8669.16
937.674	8696.06
937.982	8630.3
938.29	8561.14
938.597	8563.63
938.905	8482.28
939.213	8439.11
939.52	8473.01
939.827	8442.73
940.135	8407.7
940.442	8341.72
940.749	8352.79
941.056	8356.86
941.363	8220.81
941.67	8237.54
941.977	8159.12
942.284	8135.17
942.591	8147.14
942.898	8097.43
943.205	8004.32
943.511	8027.15
943.818	8017.2
944.125	7889.98
944.431	7860.82
944.738	7857.21
945.044	7795.06
945.35	7757.55
945.657	7726.14
945.963	7683.43
946.269	7671.9
946.575	7718.91
946.881	7633.49
947.187	7546.26
947.493	7504
947.799	7453.6
948.105	7487.05
948.41	7387.39
948.716	7411.57
949.022	7382.19
949.327	7374.74
949.633	7265.13
949.938	7282.31
950.244	7302.2
950.549	7247.06
950.854	7190.33
951.16	7151.46
951.465	7097.68
951.77	7098.13
952.075	7092.48
952.38	7076.44
952.685	7072.82
952.99	6913.5
953.294	6969.32
953.599	6862.43
953.904	6878.03
954.209	6830.79
954.513	6853.17
954.818	6835.99
955.122	6815.2
955.426	6777.24
955.731	6697.24
956.035	6664.7
956.339	6646.62
956.643	6630.35
956.948	6558.71
957.252	6510.58
957.556	6578.6
957.86	6501.76
958.163	6442.1
958.467	6387.19
958.771	6453.4
959.075	6383.12
959.378	6389.45
959.682	6388.09
959.985	6331.6
960.289	6273.07
960.592	6254.54
960.896	6181.32
961.199	6170.93
961.502	6214.09
961.805	6156.01
962.108	6105.62
962.411	6076.69
962.714	6015.68
963.017	6031.95
963.32	6007.54
963.623	6000.08
963.926	5987.65
964.228	5907.88
964.531	5881.44
964.833	5919.63
965.136	5851.84
965.438	5829.47
965.741	5845.51
966.043	5795.57
966.345	5707.21
966.648	5730.03
966.95	5702.24
967.252	5607.32
967.554	5645.29
967.856	5633.76
968.158	5516.03
968.46	5521.68
968.761	5524.16
969.063	5476.93
969.365	5460.89
969.666	5456.14
969.968	5400.55
970.269	5392.64
970.571	5391.51
970.872	5342.92
971.174	5330.72
971.475	5298.18
971.776	5299.31
972.077	5250.5
972.378	5227.45
972.679	5197.39
972.98	5235.36
973.281	5145.87
973.582	5140.44
973.883	5155.13
974.183	5116.04
974.484	5016.15
974.785	5050.28
975.085	5047.79
975.386	5062.25
975.686	5005.76
975.986	4938.87
976.287	4957.4
976.587	4918.75
976.887	4857.29
977.187	4919.21
977.487	4871.98
977.787	4814.35
978.087	4797.4
978.387	4781.13
978.687	4756.27
978.987	4702.49
979.286	4718.76
979.586	4666.78
979.885	4665.43
980.185	4655.71
980.484	4601.25
980.784	4636.28
981.083	4624.07
981.382	4558.54
981.682	4545.43
981.981	4531.87
982.28	4471.99
982.579	4464.53
982.878	4500.23
983.177	4438.54
983.475	4433.12
983.774	4410.07
984.073	4405.55
984.372	4390.41
984.67	4330.52
984.969	4309.51
985.267	4280.35
985.566	4271.54
985.864	4258.43
986.162	4248.04
986.461	4243.52
986.759	4219.79
987.057	4167.14
987.355	4141.15
987.653	4161.71
987.951	4184.99
988.249	4138.21
988.547	4065.44
988.844	4068.38
989.142	4091.66
989.44	4046.46
989.737	4010.76
990.035	3984.32
990.332	3968.95
990.63	3924.43
990.927	3952.23
991.224	3900.02
991.521	3872.68
991.819	3858.67
992.116	3825.22
992.413	3834.49
992.71	3826.58
993.006	3796.07
993.303	3785.9
993.6	3762.63
993.897	3781.38
994.193	3720.82
994.49	3713.14
994.787	3690.54
995.083	3658.67
995.379	3669.97
995.676	3613.93
995.972	3617.09
996.268	3606.92
996.565	3609.64
996.861	3550.43
997.157	3533.03
997.453	3528.51
997.749	3502.07
998.044	3469.53
998.34	3452.58
998.636	3481.73
998.932	3397.21
999.227	3415.07
999.523	3400.38
999.818	3403.99
1000.114	3389.98
1000.409	3324.45
1000.704	3336.88
1001	3264.79
1001.295	3241.96
1001.59	3275.18
1001.885	3248.52
1002.18	3234.51
1002.475	3215.75
1002.77	3226.37
1003.065	3196.99
1003.359	3181.17
1003.654	3147.28
1003.949	3149.99
1004.243	3082.87
1004.538	3075.41
1004.832	3083.32
1005.127	3039.93
1005.421	3025.47
1005.715	2988.86
1006.009	3020.5
1006.304	2959.94
1006.598	2956.55
1006.892	2937.34
1007.186	2904.57
1007.48	2895.31
1007.773	2875.64
1008.067	2836.32
1008.361	2813.5
1008.655	2841.3
1008.948	2821.41
1009.242	2822.54
1009.535	2794.52
1009.829	2766.72
1010.122	2775.53
1010.415	2708.19
1010.708	2693.5
1011.001	2705.93
1011.295	2671.36
1011.588	2661.64
1011.881	2659.15
1012.173	2648.08
1012.466	2616.89
1012.759	2619.15
1013.052	2589.1
1013.344	2580.29
1013.637	2569.66
1013.93	2538.03
1014.222	2532.15
1014.514	2484.47
1014.807	2483.11
1015.099	2458.25
1015.391	2472.27
1015.683	2437.92
1015.976	2437.24
1016.268	2442.89
1016.56	2411.7
1016.851	2367.86
1017.143	2389.1
1017.435	2338.94
1017.727	2335.55
1018.018	2301.65
1018.31	2327.41
1018.602	2281.31
1018.893	2288.77
1019.185	2253.74
1019.476	2255.55
1019.767	2257.13
1020.058	2207.19
1020.35	2185.27
1020.641	2184.14
1020.932	2182.78
1021.223	2158.38
1021.514	2149.79
1021.804	2115.66
1022.095	2126.51
1022.386	2100.98
1022.677	2079.06
1022.967	2061.88
1023.258	2050.81
1023.548	2020.3
1023.839	2031.15
1024.129	1992.05
1024.419	1985.27
1024.709	1967.19
1025	1952.96
1025.29	1940.53
1025.58	1940.75
1025.87	1955.22
1026.16	1891.94
1026.449	1922.68
1026.739	1877.7
1027.029	1884.03
1027.319	1853.07
1027.608	1849.23
1027.898	1863.02
1028.187	1832.96
1028.477	1805.39
1028.766	1800.19
1029.055	1787.99
1029.344	1783.47
1029.634	1745.05
1029.923	1732.4
1030.212	1748.67
1030.501	1729.23
1030.79	1691.95
1031.078	1692.85
1031.367	1676.13
1031.656	1664.6
1031.945	1672.51
1032.233	1667.31
1032.522	1672.51
1032.81	1609.92
1033.099	1625.06
1033.387	1580.76
1033.675	1618.05
1033.963	1575.57
1034.251	1552.29
1034.54	1537.37
1034.828	1564.72
1035.116	1496.47
1035.403	1516.58
1035.691	1508.45
1035.979	1510.93
1036.267	1498.28
1036.554	1498.73
1036.842	1469.35
1037.129	1462.35
1037.417	1465.96
1037.704	1445.17
1037.992	1434.78
1038.279	1418.28
1038.566	1412.18
1038.853	1412.18
1039.14	1412.18
